# dimensionless total lensed [l(l+1)/2pi] C_l's
# for l=2 to 2500, i.e. number of multipoles equal to 2499
#
# -> if you prefer output in CAMB/HealPix/LensPix units/order, set 'format' to 'camb' in input file
# -> if you don't want to see such a header, set 'headers' to 'no' in input file
# -> for CMB lensing (phi), these are C_l^phi-phi for the lensing potential.
#    Remember the conversion factors:
#    C_l^dd (deflection) = l(l+1) C_l^phi-phi
#    C_l^gg (shear/convergence) = 1/4 (l(l+1))^2 C_l^phi-phi
#
# 1:l     2:TT                     3:EE                     4:TE                     5:BB                     6:phiphi                 7:TPhi                   8:Ephi               
    2       1.494919431100e-10       7.295345843148e-15       4.815690805284e-13       2.237499561207e-19       8.749574313769e-09       4.848981656508e-10      -2.511442532428e-12 
    3       1.409063065812e-10       1.235873574608e-14       6.063090489328e-13       4.477279629016e-19       5.411184647046e-09       3.456200734860e-10      -2.208218008438e-12 
    4       1.324426599793e-10       1.443211472793e-14       6.271246328272e-13       7.467120666000e-19       3.763298298182e-09       2.629667385347e-10      -1.761466524446e-12 
    5       1.257356319935e-10       1.334994569235e-14       5.872204537386e-13       1.120984420568e-18       2.806194227224e-09       2.085879586927e-10      -1.307564090703e-12 
    6       1.207943748699e-10       1.030433371532e-14       5.166706002251e-13       1.570879584750e-18       2.189968473428e-09       1.702883192945e-10      -8.935751737029e-13 
    7       1.173201789273e-10       6.832242596560e-15       4.358728548736e-13       2.096773504660e-18       1.766119313123e-09       1.420337941786e-10      -5.436593637014e-13 
    8       1.149973496435e-10       4.039584690992e-15       3.570976926058e-13       2.699071296326e-18       1.459439379362e-09       1.204489706214e-10      -2.685580408110e-13 
    9       1.135803683225e-10       2.337270200635e-15       2.875860211024e-13       3.378194318872e-18       1.228820656129e-09       1.035121285145e-10      -6.991270529970e-14 
   10       1.128536186526e-10       1.574723957443e-15       2.313971574807e-13       4.134567043040e-18       1.050331253952e-09       8.996760333261e-11       5.757753264127e-14 
   11       1.126789257872e-10       1.350788519170e-15       1.902300086713e-13       4.968604229906e-18       8.851277196544e-10       7.924636527371e-11       1.234882106643e-13 
   12       1.129432861747e-10       1.295003878446e-15       1.637732600315e-13       5.880698919166e-18       7.733039880239e-10       7.003292948317e-11       1.424122746467e-13 
   13       1.135313949122e-10       1.208792907426e-15       1.502585355807e-13       6.871211691257e-18       6.815200326756e-10       6.251036866380e-11       1.281328155742e-13 
   14       1.143448104617e-10       1.063535279051e-15       1.471111280949e-13       7.940461613599e-18       6.051618751135e-10       5.598806664307e-11       9.334475895660e-14 
   15       1.153886934075e-10       9.190523277019e-16       1.513655199312e-13       9.088719210694e-18       5.408954870745e-10       5.054268883218e-11       5.027222800008e-14 
   16       1.166204828483e-10       8.372292506759e-16       1.599339737451e-13       1.031620171350e-17       4.862596958532e-10       4.592637788544e-11       7.979566041005e-15 
   17       1.179652599142e-10       8.362326827508e-16       1.703161021190e-13       1.162307074887e-17       4.393958054669e-10       4.194117606008e-11      -2.721474785121e-14 
   18       1.194198546809e-10       8.890070972563e-16       1.807400735203e-13       1.300943133506e-17       3.987236016736e-10       3.840772917649e-11      -5.175400872973e-14 
   19       1.209922661990e-10       9.627266942297e-16       1.902181622964e-13       1.447534049516e-17       3.635972191612e-10       3.529339771353e-11      -6.471653770713e-14 
   20       1.226308663958e-10       1.023535373761e-15       1.979546553959e-13       1.602079916639e-17       3.326617337293e-10       3.253888314073e-11      -6.687704998434e-14 
   21       1.243468561805e-10       1.074113530042e-15       2.040282543802e-13       1.764577671421e-17       3.054308324495e-10       3.009934744658e-11      -6.035464668779e-14 
   22       1.261377321275e-10       1.132357527952e-15       2.089111670235e-13       1.935020127531e-17       2.812527872853e-10       2.789518985161e-11      -4.848795933955e-14 
   23       1.279933670135e-10       1.217574078553e-15       2.130702886434e-13       2.113398894762e-17       2.597949348670e-10       2.589747747288e-11      -3.420367755185e-14 
   24       1.298831265068e-10       1.348341941371e-15       2.170395892938e-13       2.299703408664e-17       2.405609623449e-10       2.407476587746e-11      -2.058329186370e-14 
   25       1.318234196354e-10       1.525172176317e-15       2.212898349313e-13       2.493924339828e-17       2.233245409341e-10       2.243573877687e-11      -9.487534087987e-15 
   26       1.338255618321e-10       1.741189383712e-15       2.262333957344e-13       2.696052405817e-17       2.077736314137e-10       2.098133479901e-11      -2.288204647654e-15 
   27       1.358707029513e-10       1.989992260813e-15       2.318973157586e-13       2.906081362464e-17       1.937215295353e-10       1.967872684984e-11       7.890479866094e-16 
   28       1.379235243412e-10       2.265157860113e-15       2.381185350196e-13       3.124007246145e-17       1.809257795177e-10       1.847770289668e-11       1.013680294948e-16 
   29       1.399938281504e-10       2.566240226484e-15       2.446095212675e-13       3.349831835899e-17       1.693209457997e-10       1.737407516661e-11      -3.549875114724e-15 
   30       1.420958543580e-10       2.894547021066e-15       2.509522325241e-13       3.583560710037e-17       1.587823351863e-10       1.636930386514e-11      -8.932396865617e-15 
   31       1.442334768621e-10       3.250746344211e-15       2.566450242627e-13       3.825203241729e-17       1.490948818533e-10       1.545543639814e-11      -1.460145572630e-14 
   32       1.464096726203e-10       3.632623472824e-15       2.612897880465e-13       4.074774945802e-17       1.402085147413e-10       1.462264083631e-11      -1.969006786874e-14 
   33       1.486178731559e-10       4.036379330588e-15       2.644632009294e-13       4.332296828593e-17       1.320603592261e-10       1.385255720801e-11      -2.338782089325e-14 
   34       1.508452817110e-10       4.458716587017e-15       2.657588780396e-13       4.597794781549e-17       1.245363470965e-10       1.312300369929e-11      -2.494827076934e-14 
   35       1.530982529526e-10       4.902337731449e-15       2.651209970470e-13       4.871297842356e-17       1.175979420092e-10       1.243486557226e-11      -2.445940761676e-14 
   36       1.553841306621e-10       5.372439987945e-15       2.626300617308e-13       5.152840095910e-17       1.111894526359e-10       1.179376172988e-11      -2.235312342414e-14 
   37       1.577049298382e-10       5.874389116091e-15       2.584082166841e-13       5.442459215358e-17       1.052274422376e-10       1.120241568521e-11      -1.916637548584e-14 
   38       1.600613056128e-10       6.410430591226e-15       2.525822876323e-13       5.740188378798e-17       9.969648847705e-11       1.065982549188e-11      -1.537812089328e-14 
   39       1.624486678524e-10       6.981937080849e-15       2.453141793838e-13       6.046062201854e-17       9.457902597114e-11       1.016127952262e-11      -1.153360564113e-14 
   40       1.648552380324e-10       7.590286864684e-15       2.368146170868e-13       6.360119204288e-17       8.982621809319e-11       9.698163080227e-12      -8.297594555413e-15 
   41       1.672675260550e-10       8.236638053019e-15       2.272819053852e-13       6.682398077063e-17       8.537496712430e-11       9.260688188356e-12      -6.288840876224e-15 
   42       1.696905580725e-10       8.921167165519e-15       2.166870564963e-13       7.012924456650e-17       8.121216136980e-11       8.847931898910e-12      -5.500853751840e-15 
   43       1.721330760479e-10       9.643579658705e-15       2.049237361100e-13       7.351720241155e-17       7.732675169864e-11       8.460519535942e-12      -5.705057427262e-15 
   44       1.746016825321e-10       1.040329563414e-14       1.918650452513e-13       7.698807149905e-17       7.369047323939e-11       8.097739926304e-12      -6.603075696791e-15 
   45       1.771006260001e-10       1.119968038959e-14       1.773735625209e-13       8.054203093910e-17       7.026793958405e-11       7.757993061140e-12      -7.866712910392e-15 
   46       1.796317034929e-10       1.203285880656e-14       1.613384467172e-13       8.417910086794e-17       6.705375352989e-11       7.440562614002e-12      -9.282741334720e-15 
   47       1.821938790419e-10       1.290311516792e-14       1.436469751927e-13       8.789922652190e-17       6.404415978603e-11       7.144178480272e-12      -1.064375449570e-14 
   48       1.847829765757e-10       1.381066368055e-14       1.241732641106e-13       9.170230859789e-17       6.122585174099e-11       6.866420529909e-12      -1.170556696780e-14 
   49       1.873914183441e-10       1.475564553983e-14       1.027774887516e-13       9.558820078907e-17       5.857526126761e-11       6.603636434973e-12      -1.218528143625e-14 
   50       1.900113612302e-10       1.573816369218e-14       7.934340442517e-14       9.955670352901e-17       5.606565436027e-11       6.351998581532e-12      -1.185049668813e-14 
   51       1.926457161605e-10       1.675840505690e-14       5.390472478696e-14       1.036075489397e-16       5.369233630309e-11       6.111203657280e-12      -1.081996255832e-14 
   52       1.952996676390e-10       1.781654640594e-14       2.655169973915e-14       1.077404075381e-16       5.145306054398e-11       5.881635235009e-12      -9.341193168586e-15 
   53       1.979774380203e-10       1.891271843153e-14      -2.603188557353e-15       1.119548890905e-16       4.934048610041e-11       5.663284566305e-12      -7.708758870928e-15 
   54       2.006821858337e-10       2.004700458478e-14      -3.342420299499e-14       1.162505399694e-16       4.734183469760e-11       5.455722013047e-12      -6.266642294711e-15 
   55       2.034160968982e-10       2.121943998058e-14      -6.578463821543e-14       1.206268935177e-16       4.544278785013e-11       5.258312879337e-12      -5.327634182178e-15 
   56       2.061809171006e-10       2.243001045465e-14      -9.967541607580e-14       1.250836418447e-16       4.364109726841e-11       5.070993142570e-12      -4.902674921027e-15 
   57       2.089773738782e-10       2.367865123790e-14      -1.351216763093e-13       1.296205020789e-16       4.193575501997e-11       4.893636390651e-12      -4.908402439581e-15 
   58       2.118049029110e-10       2.496524573583e-14      -1.721520998336e-13       1.342371665355e-16       4.032287601676e-11       4.725807673643e-12      -5.243364390348e-15 
   59       2.146615539567e-10       2.628962436966e-14      -2.107991838313e-13       1.389333021389e-16       3.879552034591e-11       4.566744457367e-12      -5.787141981105e-15 
   60       2.175438966876e-10       2.765156341749e-14      -2.510995168303e-13       1.437085498451e-16       3.734351560053e-11       4.415337577000e-12      -6.399473805982e-15 
   61       2.204484852146e-10       2.905075761646e-14      -2.930877993997e-13       1.485626007832e-16       3.595628051863e-11       4.270432885827e-12      -6.949466123682e-15 
   62       2.233768488276e-10       3.048673340455e-14      -3.367767155857e-13       1.534954459583e-16       3.463243846646e-11       4.131858411081e-12      -7.412867557051e-15 
   63       2.263314594825e-10       3.195891405994e-14      -3.821730109766e-13       1.585071818273e-16       3.337205634788e-11       3.999595005334e-12      -7.795173334342e-15 
   64       2.293142281411e-10       3.346664226958e-14      -4.292834235191e-13       1.635979403453e-16       3.217375290187e-11       3.873467300776e-12      -8.103542444154e-15 
   65       2.323264600626e-10       3.500917813777e-14      -4.781147601510e-13       1.687678908223e-16       3.103461626257e-11       3.753134838233e-12      -8.346876086735e-15 
   66       2.353688100959e-10       3.658569719478e-14      -5.286739734350e-13       1.740172417802e-16       2.995012151932e-11       3.638083196174e-12      -8.535896125283e-15 
   67       2.384412379713e-10       3.819528840540e-14      -5.809682381921e-13       1.793462428090e-16       2.891404827666e-11       3.527615119728e-12      -8.683223537251e-15 
   68       2.415434787979e-10       3.983702663846e-14      -6.349997423410e-13       1.847551758549e-16       2.792014121615e-11       3.421045371148e-12      -8.801553795751e-15 
   69       2.446766651962e-10       4.151021157831e-14      -6.907486624344e-13       1.902443228844e-16       2.696766677972e-11       3.318350957622e-12      -8.897578330047e-15 
   70       2.478419550470e-10       4.321417386803e-14      -7.481868603361e-13       1.958139949734e-16       2.605683949112e-11       3.219637325872e-12      -8.976966667166e-15 
   71       2.510400144020e-10       4.494820484635e-14      -8.072828062921e-13       2.014645438537e-16       2.518714139291e-11       3.124942703081e-12      -9.046189769532e-15 
   72       2.542709859522e-10       4.671155646062e-14      -8.680015203767e-13       2.071963635002e-16       2.435728418450e-11       3.034234436178e-12      -9.112549814406e-15 
   73       2.575344574968e-10       4.850344117977e-14      -9.303045139401e-13       2.130098917162e-16       2.356517136020e-11       2.947405331116e-12      -9.184209973320e-15 
   74       2.608294304112e-10       5.032303190723e-14      -9.941497310549e-13       2.189056117207e-16       2.280786034738e-11       2.864269992153e-12      -9.270224191517e-15 
   75       2.641542881161e-10       5.216946189396e-14      -1.059491489963e-12       2.248840537341e-16       2.208152464446e-11       2.784561161135e-12      -9.380566967387e-15 
   76       2.675074492219e-10       5.404170465543e-14      -1.126281517837e-12       2.309457010431e-16       2.138240324890e-11       2.707999466617e-12      -9.523139534441e-15 
   77       2.708895341671e-10       5.593818863464e-14      -1.194472402352e-12       2.370906849117e-16       2.070993251540e-11       2.634525447376e-12      -9.694092301514e-15 
   78       2.743015382263e-10       5.785711178644e-14      -1.264014666068e-12       2.433190366591e-16       2.006411927303e-11       2.564103385296e-12      -9.885783567050e-15 
   79       2.777441646762e-10       5.979655283328e-14      -1.334855693404e-12       2.496307778799e-16       1.944458686900e-11       2.496649528538e-12      -1.008961485804e-14 
   80       2.812178073037e-10       6.175446871756e-14      -1.406939694507e-12       2.560259200716e-16       1.885055755194e-11       2.432029936155e-12      -1.029599870817e-14 
   81       2.847225329146e-10       6.372869205394e-14      -1.480207669111e-12       2.625044642620e-16       1.828083485511e-11       2.370058322698e-12      -1.049432643589e-14 
   82       2.882580638417e-10       6.571692858170e-14      -1.554597370411e-12       2.690664006370e-16       1.773378597969e-11       2.310493902825e-12      -1.067293592259e-14 
   83       2.918237604536e-10       6.771675461711e-14      -1.630043268925e-12       2.757117081681e-16       1.720732417803e-11       2.253039235912e-12      -1.081907939070e-14 
   84       2.954189769782e-10       6.972585201482e-14      -1.706483709085e-12       2.824403682667e-16       1.669941563316e-11       2.197411294638e-12      -1.092149084597e-14 
   85       2.990442350661e-10       7.174276338715e-14      -1.783883821333e-12       2.892524091631e-16       1.620973523490e-11       2.143572928957e-12      -1.097864802222e-14 
   86       3.027002136140e-10       7.376625799530e-14      -1.862216359777e-12       2.961478682361e-16       1.573825427317e-11       2.091536000557e-12      -1.099182738299e-14 
   87       3.063873816947e-10       7.579510679473e-14      -1.941454930682e-12       3.031267785056e-16       1.528473167535e-11       2.041290659471e-12      -1.096263753634e-14 
   88       3.101059873399e-10       7.782808387927e-14      -2.021574077226e-12       3.101891684964e-16       1.484870520452e-11       1.992804419338e-12      -1.089303070471e-14 
   89       3.138560463227e-10       7.986396792521e-14      -2.102549364249e-12       3.173350621010e-16       1.442948265788e-11       1.946021232669e-12      -1.078531419498e-14 
   90       3.176373309402e-10       8.190154363539e-14      -2.184357463005e-12       3.245644784432e-16       1.402613306497e-11       1.900860566114e-12      -1.064216186836e-14 
   91       3.214493587961e-10       8.393960318331e-14      -2.266976235918e-12       3.318774317418e-16       1.363747788606e-11       1.857216475720e-12      -1.046662561035e-14 
   92       3.252913815834e-10       8.597694765720e-14      -2.350384821332e-12       3.392739311731e-16       1.326208221043e-11       1.814956682200e-12      -1.026214680074e-14 
   93       3.291626470692e-10       8.801227442649e-14      -2.434555048498e-12       3.467540940543e-16       1.289859503467e-11       1.773955665044e-12      -1.003243451948e-14 
   94       3.330632544871e-10       9.004381672664e-14      -2.519424021458e-12       3.543185051588e-16       1.254684775773e-11       1.734201647028e-12      -9.781054297329e-15 
   95       3.369934076547e-10       9.206965228557e-14      -2.604917549289e-12       3.619679114406e-16       1.220690539487e-11       1.695704065309e-12      -9.511798432306e-15 
   96       3.409531458669e-10       9.408781245126e-14      -2.690958414670e-12       3.697031149301e-16       1.187872826247e-11       1.658460534639e-12      -9.228823254052e-15 
   97       3.449423364295e-10       9.609628206990e-14      -2.777466339621e-12       3.775249741527e-16       1.156216796805e-11       1.622456389600e-12      -8.936658764510e-15 
   98       3.489606671911e-10       9.809299936406e-14      -2.864357951251e-12       3.854344055481e-16       1.125696340038e-11       1.587664226843e-12      -8.640218278581e-15 
   99       3.530076390763e-10       1.000758558109e-13      -2.951546747502e-12       3.934323848886e-16       1.096273671954e-11       1.554043447318e-12      -8.344808064792e-15 
  100       3.570825586188e-10       1.020426960202e-13      -3.038943062889e-12       4.015199486985e-16       1.067898934703e-11       1.521539798513e-12      -8.056136985956e-15 
  101       3.611845304937e-10       1.039913176127e-13      -3.126454034250e-12       4.096981956725e-16       1.040509795583e-11       1.490084916689e-12      -7.780326139838e-15 
  102       3.653124500504e-10       1.059194710982e-13      -3.213983566483e-12       4.179682880949e-16       1.014031046051e-11       1.459595869112e-12      -7.523918499817e-15 
  103       3.694649958457e-10       1.078248597538e-13      -3.301432298294e-12       4.263314532582e-16       9.883742007264e-12       1.429974696294e-12      -7.293888555546e-15 
  104       3.736409119486e-10       1.097052513290e-13      -3.388704560374e-12       4.347888585367e-16       9.634575462071e-12       1.401130869325e-12      -7.096051747111e-15 
  105       3.778399143699e-10       1.115588306091e-13      -3.475730394189e-12       4.433412143306e-16       9.392702356047e-12       1.373053102819e-12      -6.930027300535e-15 
  106       3.820618937273e-10       1.133838944728e-13      -3.562446457592e-12       4.519891198808e-16       9.158161449884e-12       1.345746434609e-12      -6.793609750038e-15 
  107       3.863066321757e-10       1.151787454116e-13      -3.648789340068e-12       4.607331848548e-16       8.930940226084e-12       1.319209973451e-12      -6.684300533360e-15 
