# dimensionless total [l(l+1)/2pi] C_l's
# for l=2 to 3000, i.e. number of multipoles equal to 2999
#
# -> if you prefer output in CAMB/HealPix/LensPix units/order, set 'format' to 'camb' in input file
# -> if you don't want to see such a header, set 'headers' to 'no' in input file
# -> for CMB lensing (phi), these are C_l^phi-phi for the lensing potential.
#    Remember the conversion factors:
#    C_l^dd (deflection) = l(l+1) C_l^phi-phi
#    C_l^gg (shear/convergence) = 1/4 (l(l+1))^2 C_l^phi-phi
#
# 1:l     2:TT                     3:EE                     4:TE                     5:BB                     6:phiphi                 7:TPhi                   8:Ephi               
    2       1.494431540067e-10       7.261108979415e-15       4.802603310250e-13       0.000000000000e+00       8.688465039139e-09       4.836613428208e-10      -2.505308597235e-12 
    3       1.408565608799e-10       1.229811181689e-14       6.045452743033e-13       0.000000000000e+00       5.380455474973e-09       3.446101273588e-10      -2.202003101197e-12 
    4       1.323989026331e-10       1.435892715453e-14       6.250811169770e-13       0.000000000000e+00       3.740039246881e-09       2.620269685394e-10      -1.756120014694e-12 
    5       1.256998659984e-10       1.328114775582e-14       5.851293620061e-13       0.000000000000e+00       2.786810239042e-09       2.077293037520e-10      -1.303345308799e-12 
    6       1.207675401346e-10       1.025042658504e-14       5.147026481274e-13       0.000000000000e+00       2.172022710843e-09       1.694941494399e-10      -8.904584006664e-13 
    7       1.172958437228e-10       6.795677278086e-15       4.341563021544e-13       0.000000000000e+00       1.749224236219e-09       1.412850715907e-10      -5.414953164966e-13 
    8       1.149787084147e-10       4.017241680790e-15       3.556868342641e-13       0.000000000000e+00       1.444287355343e-09       1.197491167250e-10      -2.671259388403e-13 
    9       1.135689261405e-10       2.324239258287e-15       2.864901886065e-13       0.000000000000e+00       1.215542435345e-09       1.028739763780e-10      -6.895861744400e-14 
   10       1.128487835615e-10       1.566824716442e-15       2.306074914670e-13       0.000000000000e+00       1.038550893095e-09       8.938918819990e-11       5.829812066284e-14 
   11       1.126844463146e-10       1.345275816656e-15       1.896760181604e-13       0.000000000000e+00       8.772140765606e-10       7.877618429979e-11       1.241720408392e-13 
   12       1.129527977365e-10       1.290132929984e-15       1.633552950585e-13       0.000000000000e+00       7.661193363373e-10       6.958684745627e-11       1.431572175751e-13 
   13       1.135493001016e-10       1.203147529927e-15       1.499147658502e-13       0.000000000000e+00       6.749554874851e-10       6.209952104290e-11       1.289806449842e-13 
   14       1.143749612680e-10       1.055770874483e-15       1.467625010178e-13       0.000000000000e+00       5.991316999773e-10       5.560823454282e-11       9.422132365601e-14 
   15       1.154334054738e-10       9.081688833006e-16       1.509141153534e-13       0.000000000000e+00       5.353295807697e-10       5.019117164622e-11       5.111562162014e-14 
   16       1.166724743145e-10       8.227308297143e-16       1.594142032240e-13       0.000000000000e+00       4.811006604630e-10       4.559010314356e-11       8.772932944906e-15 
   17       1.180339478518e-10       8.180986188899e-16       1.697293019263e-13       0.000000000000e+00       4.345960470187e-10       4.161347988962e-11      -2.645020687837e-14 
   18       1.195026343880e-10       8.678100915885e-16       1.800213663140e-13       0.000000000000e+00       3.942452110537e-10       3.809920822937e-11      -5.101139927149e-14 
   19       1.210866428151e-10       9.390996288365e-16       1.893418649262e-13       0.000000000000e+00       3.594025612487e-10       3.501018833273e-11      -6.402897392379e-14 
   20       1.227418111162e-10       9.978667791654e-16       1.969656785925e-13       0.000000000000e+00       3.287237578826e-10       3.227508559522e-11      -6.631652834207e-14 
   21       1.244774405411e-10       1.046325009816e-15       2.029613155049e-13       0.000000000000e+00       3.017248478541e-10       2.984765123650e-11      -5.996245375620e-14 
   22       1.262864578075e-10       1.101810848125e-15       2.077627795625e-13       0.000000000000e+00       2.777574942688e-10       2.765146595489e-11      -4.824909973420e-14 
   23       1.281606232231e-10       1.183483526151e-15       2.118304426035e-13       0.000000000000e+00       2.564908081486e-10       2.566220769190e-11      -3.408506939754e-14 
   24       1.300727527513e-10       1.309993553740e-15       2.157022562118e-13       0.000000000000e+00       2.374320145491e-10       2.385279989098e-11      -2.054387658248e-14 
   25       1.320371643610e-10       1.482261819285e-15       2.198521953910e-13       0.000000000000e+00       2.203560054221e-10       2.222832090919e-11      -9.466900199365e-15 
   26       1.340617429015e-10       1.693848173526e-15       2.246999447384e-13       0.000000000000e+00       2.049527706737e-10       2.078412407045e-11      -2.211419042130e-15 
   27       1.361287879293e-10       1.938020817307e-15       2.302976090290e-13       0.000000000000e+00       1.910367611277e-10       1.948833740330e-11       9.648960994725e-16 
   28       1.382054417193e-10       2.207826410861e-15       2.365054816481e-13       0.000000000000e+00       1.783672912109e-10       1.829376164010e-11       3.723965157095e-16 
   29       1.403017061270e-10       2.502825007508e-15       2.430092321463e-13       0.000000000000e+00       1.668791659008e-10       1.719698484800e-11      -3.200919411376e-15 
   30       1.424312223169e-10       2.824538272210e-15       2.493395363551e-13       0.000000000000e+00       1.564485458533e-10       1.619964723958e-11      -8.526258256423e-15 
   31       1.445972441852e-10       3.173875001734e-15       2.549499217876e-13       0.000000000000e+00       1.468621003435e-10       1.529388943704e-11      -1.416283306097e-14 
   32       1.468027223809e-10       3.548723177543e-15       2.594764541175e-13       0.000000000000e+00       1.380699922274e-10       1.446926873393e-11      -1.925010720709e-14 
   33       1.490412716887e-10       3.945354353746e-15       2.625649696568e-13       0.000000000000e+00       1.300097548821e-10       1.370648412113e-11      -2.298536161434e-14 
   34       1.513001919877e-10       4.360513835042e-15       2.638733585992e-13       0.000000000000e+00       1.225682538548e-10       1.298254383965e-11      -2.462514979579e-14 
   35       1.535853554733e-10       4.796783241027e-15       2.633273161888e-13       0.000000000000e+00       1.157071735711e-10       1.229874231270e-11      -2.423686553743e-14 
   36       1.559033543075e-10       5.259159601203e-15       2.609561013145e-13       0.000000000000e+00       1.093712461525e-10       1.166163936658e-11      -2.221986066467e-14 
   37       1.582555824007e-10       5.752822889187e-15       2.568297215099e-13       0.000000000000e+00       1.034777577267e-10       1.107488065825e-11      -1.908016611133e-14 
   38       1.606431636252e-10       6.280057635896e-15       2.510641549335e-13       0.000000000000e+00       9.801132952104e-11       1.053739454218e-11      -1.529862010022e-14 
   39       1.630624341697e-10       6.842359726614e-15       2.438230879148e-13       0.000000000000e+00       9.295448314778e-11       1.004406579539e-11      -1.143426328779e-14 
   40       1.655027607355e-10       7.441260967372e-15       2.353205141556e-13       0.000000000000e+00       8.825881439186e-11       9.585796846529e-12      -8.169555350911e-15 
   41       1.679516401066e-10       8.078042858576e-15       2.257614389969e-13       0.000000000000e+00       8.386182139098e-11       9.152368751990e-12      -6.140780224221e-15 
   42       1.704136137601e-10       8.752765559925e-15       2.151333156811e-13       0.000000000000e+00       7.975045952151e-11       8.742935402034e-12      -5.344396139793e-15 
   43       1.728963767914e-10       9.464923026442e-15       2.033519387247e-13       0.000000000000e+00       7.591373738740e-11       8.358391587267e-12      -5.550362222157e-15 
   44       1.754052644742e-10       1.021368286692e-14       1.903168190854e-13       0.000000000000e+00       7.232364853715e-11       7.998369962661e-12      -6.458312077148e-15 
   45       1.779433743425e-10       1.099819719563e-14       1.759127248998e-13       0.000000000000e+00       6.894515155984e-11       7.661593463881e-12      -7.737542425570e-15 
   46       1.805126293256e-10       1.181869209336e-14       1.600176751483e-13       0.000000000000e+00       6.577285876289e-11       7.347316912103e-12      -9.171907990324e-15 
   47       1.831125608199e-10       1.267567058549e-14       1.424952986035e-13       0.000000000000e+00       6.280301295784e-11       7.054129637531e-12      -1.055054032150e-14 
   48       1.857396892795e-10       1.356960999541e-14       1.231912900425e-13       0.000000000000e+00       6.002242277145e-11       6.779449679528e-12      -1.162517649859e-14 
   49       1.883872699550e-10       1.450096141635e-14       1.019323703432e-13       0.000000000000e+00       5.740776150001e-11       6.519440616893e-12      -1.210819386865e-14 
   50       1.910481961596e-10       1.547010781604e-14       7.857305611286e-14       0.000000000000e+00       5.493257821572e-11       6.270118657789e-12      -1.176324395605e-14 
   51       1.937252279939e-10       1.647722616968e-14       5.315334742872e-14       0.000000000000e+00       5.259220129798e-11       6.031221132020e-12      -1.071071645004e-14 
   52       1.964231005878e-10       1.752238699152e-14       2.578204511510e-14       0.000000000000e+00       5.038438271082e-11       5.803244293298e-12      -9.201792888146e-15 
   53       1.991455060760e-10       1.860559001502e-14      -3.406136561967e-15       0.000000000000e+00       4.830184636832e-11       5.586318322262e-12      -7.535429884197e-15 
   54       2.018949879274e-10       1.972676171798e-14      -3.424935993795e-14       0.000000000000e+00       4.633194991840e-11       5.380180168979e-12      -6.060751474649e-15 
   55       2.046731804031e-10       2.088579484458e-14      -6.659713119078e-14       0.000000000000e+00       4.446053240843e-11       5.184348215321e-12      -5.095480056852e-15 
   56       2.074818386770e-10       2.208268413852e-14      -1.004396644350e-13       0.000000000000e+00       4.268535142558e-11       4.998759288339e-12      -4.652019374544e-15 
   57       2.103218795281e-10       2.331741999397e-14      -1.358085351114e-13       0.000000000000e+00       4.100539161835e-11       4.823242326191e-12      -4.647515047864e-15 
   58       2.131929684146e-10       2.458994859246e-14      -1.727401470184e-13       0.000000000000e+00       3.941679995839e-11       4.657311548534e-12      -4.980994380885e-15 
   59       2.160934272495e-10       2.590017106427e-14      -2.112760682203e-13       0.000000000000e+00       3.791271061055e-11       4.500147162138e-12      -5.532487484197e-15 
   60       2.190201421759e-10       2.724794264976e-14      -2.514633669549e-13       0.000000000000e+00       3.648306980304e-11       4.350576066497e-12      -6.162148397493e-15 
   61       2.219699447460e-10       2.863301670899e-14      -2.933457683264e-13       0.000000000000e+00       3.511742175582e-11       4.207386689001e-12      -6.739045769618e-15 
   62       2.249443263731e-10       3.005486396186e-14      -3.369340449031e-13       0.000000000000e+00       3.381439339674e-11       4.070399719779e-12      -7.237074832566e-15 
   63       2.279456232508e-10       3.151281100162e-14      -3.822295457999e-13       0.000000000000e+00       3.257403750945e-11       3.939604570323e-12      -7.659112291609e-15 
   64       2.309755917546e-10       3.300608932905e-14      -4.292328331988e-13       0.000000000000e+00       3.139497996748e-11       3.814837931273e-12      -8.009307758148e-15 
   65       2.340353629670e-10       3.453383276389e-14      -4.779437270075e-13       0.000000000000e+00       3.027433855652e-11       3.695775079708e-12      -8.293146264925e-15 
   66       2.371253972038e-10       3.609507485626e-14      -5.283613495178e-13       0.000000000000e+00       2.920764179662e-11       3.581921186434e-12      -8.517510781223e-15 
   67       2.402454385387e-10       3.768874629813e-14      -5.804841700641e-13       0.000000000000e+00       2.818874776449e-11       3.472602623277e-12      -8.690744728078e-15 
   68       2.433950324819e-10       3.931380350918e-14      -6.343076037069e-13       0.000000000000e+00       2.721148081438e-11       3.367156295046e-12      -8.821909654400e-15 
   69       2.465753024687e-10       4.096965043641e-14      -6.898161424431e-13       0.000000000000e+00       2.627510830764e-11       3.265561614875e-12      -8.918243861029e-15 
   70       2.497874532955e-10       4.265579796471e-14      -7.469897024720e-13       0.000000000000e+00       2.537983288033e-11       3.167921556126e-12      -8.987298766011e-15 
   71       2.530322093027e-10       4.437174105710e-14      -8.058059115196e-13       0.000000000000e+00       2.452513615894e-11       3.074272394865e-12      -9.037739360492e-15 
   72       2.563097833028e-10       4.611695952095e-14      -8.662400909394e-13       0.000000000000e+00       2.370974151865e-11       2.984580081720e-12      -9.079386139805e-15 
   73       2.596198455090e-10       4.789091877430e-14      -9.282652378146e-13       0.000000000000e+00       2.293157684161e-11       2.898736613743e-12      -9.123257034558e-15 
   74       2.629614924633e-10       4.969307061210e-14      -9.918520070590e-13       0.000000000000e+00       2.218773727525e-11       2.816556406269e-12      -9.181609341719e-15 
   75       2.663332159654e-10       5.152285397254e-14      -1.056968693519e-12       0.000000000000e+00       2.147444799051e-11       2.737772664777e-12      -9.267981655705e-15 
   76       2.697335320920e-10       5.337951537137e-14      -1.123579495792e-12       0.000000000000e+00       2.078799911123e-11       2.662106686323e-12      -9.393398876455e-15 
   77       2.731630693655e-10       5.526153070793e-14      -1.191638981730e-12       0.000000000000e+00       2.012782965314e-11       2.589498373709e-12      -9.554095598239e-15 
   78       2.766228066912e-10       5.716707892496e-14      -1.261096576487e-12       0.000000000000e+00       1.949394090812e-11       2.519911360384e-12      -9.741619800901e-15 
   79       2.801134297954e-10       5.909421010271e-14      -1.331898138995e-12       0.000000000000e+00       1.888595713670e-11       2.453261711838e-12      -9.946435015383e-15 
   80       2.836353136892e-10       6.104084252735e-14      -1.403985908832e-12       0.000000000000e+00       1.830310826146e-11       2.389415792943e-12      -1.015788357560e-14 
   81       2.871885051326e-10       6.300475975942e-14      -1.477298453086e-12       0.000000000000e+00       1.774421256051e-11       2.328188135291e-12      -1.036414987030e-14 
   82       2.907727050987e-10       6.498360770221e-14      -1.551770613225e-12       0.000000000000e+00       1.720765936091e-11       2.269339304539e-12      -1.055222359496e-14 
   83       2.943872512381e-10       6.697489167024e-14      -1.627333451960e-12       0.000000000000e+00       1.669139173207e-11       2.212573767745e-12      -1.070786300364e-14 
   84       2.980314766704e-10       6.897622493831e-14      -1.703921836149e-12       0.000000000000e+00       1.619340505198e-11       2.157610572816e-12      -1.081847520044e-14 
   85       3.017058931147e-10       7.098612815294e-14      -1.781498746246e-12       0.000000000000e+00       1.571337558023e-11       2.104413521142e-12      -1.088238613683e-14 
   86       3.054111726580e-10       7.300335768773e-14      -1.860034918162e-12       0.000000000000e+00       1.525127139244e-11       2.052995419995e-12      -1.090104715282e-14 
   87       3.091477778206e-10       7.502666722160e-14      -1.939501639639e-12       0.000000000000e+00       1.480685200294e-11       2.003347767556e-12      -1.087626667052e-14 
   88       3.129159503446e-10       7.705480903380e-14      -2.019870825454e-12       0.000000000000e+00       1.437965972834e-11       1.955439843989e-12      -1.081022247185e-14 
   89       3.167156999829e-10       7.908653529890e-14      -2.101115092623e-12       0.000000000000e+00       1.396901105108e-11       1.909217802515e-12      -1.070547397628e-14 
   90       3.205467932888e-10       8.112059938176e-14      -2.183207835603e-12       0.000000000000e+00       1.357398798303e-11       1.864603760481e-12      -1.056497451865e-14 
   91       3.244087424040e-10       8.315575713255e-14      -2.266123301496e-12       0.000000000000e+00       1.319342942899e-11       1.821494890440e-12      -1.039208362680e-14 
   92       3.283007938482e-10       8.519076818174e-14      -2.349836665253e-12       0.000000000000e+00       1.282592255033e-11       1.779762511218e-12      -1.019057929945e-14 
   93       3.322221935440e-10       8.722429778188e-14      -2.434316568996e-12       0.000000000000e+00       1.247013711336e-11       1.739284288465e-12      -9.964457137460e-15 
   94       3.361730518389e-10       8.925460263281e-14      -2.519501293080e-12       0.000000000000e+00       1.212590481568e-11       1.700048350405e-12      -9.717266512263e-15 
   95       3.401535884597e-10       9.127979997897e-14      -2.605319123522e-12       0.000000000000e+00       1.179328707802e-11       1.662063223447e-12      -9.452696792909e-15 
   96       3.441638605489e-10       9.329796278314e-14      -2.691695540696e-12       0.000000000000e+00       1.147224264770e-11       1.625325669615e-12      -9.174790823077e-15 
   97       3.482037552457e-10       9.530711965626e-14      -2.778553191087e-12       0.000000000000e+00       1.116262367025e-11       1.589820232106e-12      -8.887954272993e-15 
   98       3.522729822665e-10       9.730525478720e-14      -2.865811859055e-12       0.000000000000e+00       1.086417176112e-11       1.555518780859e-12      -8.596964991355e-15 
   99       3.563710664858e-10       9.929030787264e-14      -2.953388438592e-12       0.000000000000e+00       1.057651407730e-11       1.522380058110e-12      -8.306982357254e-15 
  100       3.604973405170e-10       1.012601740468e-13      -3.041196905081e-12       0.000000000000e+00       1.029915938899e-11       1.490349223955e-12      -8.023556632095e-15 
  101       3.646509372934e-10       1.032127038114e-13      -3.129148287060e-12       0.000000000000e+00       1.003149415127e-11       1.459357401914e-12      -7.752638311525e-15 
  102       3.688307826485e-10       1.051457029652e-13      -3.217150637977e-12       0.000000000000e+00       9.772778575762e-12       1.429321224491e-12      -7.500587477351e-15 
  103       3.730355878974e-10       1.070569325342e-13      -3.305109007951e-12       0.000000000000e+00       9.522142702284e-12       1.400142378736e-12      -7.274183149463e-15 
  104       3.772641278043e-10       1.089442104025e-13      -3.392931620313e-12       0.000000000000e+00       9.278783097141e-12       1.371730098736e-12      -7.079079267863e-15 
  105       3.815161332305e-10       1.108057319935e-13      -3.480549412279e-12       0.000000000000e+00       9.042591670315e-12       1.344073082253e-12      -6.914914954917e-15 
  106       3.857915058003e-10       1.126397929788e-13      -3.567899093580e-12       0.000000000000e+00       8.813604874208e-12       1.317176487000e-12      -6.779558080487e-15 
  107       3.900900390499e-10       1.144446924800e-13      -3.654917216857e-12       0.000000000000e+00       8.591808959532e-12       1.291039651400e-12      -6.670592022264e-15 
