# dimensionless total [l(l+1)/2pi] C_l's
# for l=2 to 3000, i.e. number of multipoles equal to 2999
#
# -> if you prefer output in CAMB/HealPix/LensPix units/order, set 'format' to 'camb' in input file
# -> if you don't want to see such a header, set 'headers' to 'no' in input file
# -> for CMB lensing (phi), these are C_l^phi-phi for the lensing potential.
#    Remember the conversion factors:
#    C_l^dd (deflection) = l(l+1) C_l^phi-phi
#    C_l^gg (shear/convergence) = 1/4 (l(l+1))^2 C_l^phi-phi
#
# 1:l     2:TT                     3:EE                     4:TE                     5:BB                     6:phiphi                 7:TPhi                   8:Ephi               
    2       1.494854101794e-10       7.297193546275e-15       4.818730209849e-13       0.000000000000e+00       8.804709858164e-09       4.847062851592e-10      -2.510604614692e-12 
    3       1.409067542250e-10       1.235833963201e-14       6.063193104617e-13       0.000000000000e+00       5.406792975293e-09       3.454006270846e-10      -2.208144934981e-12 
    4       1.324421291559e-10       1.443180378119e-14       6.271468080208e-13       0.000000000000e+00       3.755996647671e-09       2.628701412725e-10      -1.761465767186e-12 
    5       1.257337058517e-10       1.334901697066e-14       5.872353431090e-13       0.000000000000e+00       2.802344295473e-09       2.085607671587e-10      -1.307505868595e-12 
    6       1.207910630963e-10       1.030285337994e-14       5.166822958888e-13       0.000000000000e+00       2.188363593008e-09       1.702916062116e-10      -8.935500003548e-13 
    7       1.173154564755e-10       6.830222101854e-15       4.358737803973e-13       0.000000000000e+00       1.765187628357e-09       1.420400016158e-10      -5.436783696020e-13 
    8       1.149909224417e-10       4.036951637255e-15       3.570925215445e-13       0.000000000000e+00       1.458698708199e-09       1.204431101500e-10      -2.686192726834e-13 
    9       1.135722278085e-10       2.333949207108e-15       2.875892767064e-13       0.000000000000e+00       1.228084754827e-09       1.034916450795e-10      -6.998602206085e-14 
   10       1.128433588438e-10       1.570642292610e-15       2.314114189734e-13       0.000000000000e+00       1.049353041123e-09       8.993558175853e-11       5.753410702821e-14 
   11       1.126668981354e-10       1.345871544309e-15       1.902587450997e-13       0.000000000000e+00       8.851042971885e-10       7.922890368714e-11       1.234979701837e-13 
   12       1.129291497556e-10       1.289184095499e-15       1.638020742214e-13       0.000000000000e+00       7.732827290629e-10       7.001799116491e-11       1.424654384219e-13 
   13       1.135156932793e-10       1.202016160832e-15       1.502836384612e-13       0.000000000000e+00       6.815003200790e-10       6.250209338476e-11       1.281952838428e-13 
   14       1.143270262045e-10       1.055712509211e-15       1.471525287777e-13       0.000000000000e+00       6.051437015519e-10       5.598718336591e-11       9.337911293332e-14 
   15       1.153691102619e-10       9.101282514422e-16       1.513814858016e-13       0.000000000000e+00       5.408785936114e-10       5.054722572440e-11       5.025841379192e-14 
   16       1.165984210349e-10       8.271769673784e-16       1.599593096019e-13       0.000000000000e+00       4.862440570906e-10       4.593340356799e-11       7.927258507899e-15 
   17       1.179401590020e-10       8.248541423912e-16       1.704076344096e-13       0.000000000000e+00       4.393812004281e-10       4.194800727633e-11      -2.727306837619e-14 
   18       1.193917212710e-10       8.761784413006e-16       1.808405121507e-13       0.000000000000e+00       3.987102376361e-10       3.841293465144e-11      -5.179211837532e-14 
   19       1.209612478629e-10       9.484386574659e-16       1.902836294957e-13       0.000000000000e+00       3.635844416410e-10       3.529634489759e-11      -6.473163502285e-14 
   20       1.225970919488e-10       1.007857126481e-15       1.980080515030e-13       0.000000000000e+00       3.326496588268e-10       3.253963829675e-11      -6.689060041204e-14 
   21       1.243102914874e-10       1.056988852195e-15       2.040920566267e-13       0.000000000000e+00       3.054195769975e-10       3.009809576626e-11      -6.036914079413e-14 
   22       1.260981382131e-10       1.113553824555e-15       2.089858897257e-13       0.000000000000e+00       2.812422300638e-10       2.789217192908e-11      -4.847617888911e-14 
   23       1.279505326709e-10       1.196931404257e-15       2.131592640038e-13       0.000000000000e+00       2.597849587003e-10       2.589372037473e-11      -3.415492057455e-14 
   24       1.298369529157e-10       1.325857870836e-15       2.171539691835e-13       0.000000000000e+00       2.405515373297e-10       2.407214080131e-11      -2.051816349294e-14 
   25       1.317738753711e-10       1.500895245709e-15       2.214274979040e-13       0.000000000000e+00       2.233156486945e-10       2.243549778698e-11      -9.432257608700e-15 
   26       1.337726413707e-10       1.715168968203e-15       2.263759606972e-13       0.000000000000e+00       2.077652447562e-10       2.098350273086e-11      -2.261427876049e-15 
   27       1.358142667340e-10       1.962199092640e-15       2.320407752230e-13       0.000000000000e+00       1.937136142294e-10       1.968233287950e-11       7.957072327746e-16 
   28       1.378632722699e-10       2.235462160109e-15       2.382801071419e-13       0.000000000000e+00       1.809182981560e-10       1.848098566000e-11       1.248817612534e-16 
   29       1.399295220758e-10       2.534496939990e-15       2.447998341362e-13       0.000000000000e+00       1.693138624078e-10       1.737563334103e-11      -3.485692338694e-15 
   30       1.420274153330e-10       2.860625844957e-15       2.511636141484e-13       0.000000000000e+00       1.587756209046e-10       1.636863175246e-11      -8.835442554068e-15 
   31       1.441609804273e-10       3.214538687244e-15       2.568527946702e-13       0.000000000000e+00       1.490885176113e-10       1.545297383088e-11      -1.451001305015e-14 
   32       1.463331642506e-10       3.594048196248e-15       2.614762051469e-13       0.000000000000e+00       1.402024810446e-10       1.461898695741e-11      -1.963462555613e-14 
   33       1.485372944788e-10       3.995390319582e-15       2.646275593821e-13       0.000000000000e+00       1.320546345459e-10       1.384820984061e-11      -2.337553270538e-14 
   34       1.507604742998e-10       4.415292189248e-15       2.659180556208e-13       0.000000000000e+00       1.245309098416e-10       1.311834267115e-11      -2.496264140161e-14 
   35       1.530090779771e-10       4.856404003364e-15       2.652959492917e-13       0.000000000000e+00       1.175927725761e-10       1.243024785930e-11      -2.448151687780e-14 
   36       1.552905136351e-10       5.323835624759e-15       2.628415240286e-13       0.000000000000e+00       1.111845357964e-10       1.178954087161e-11      -2.236879426165e-14 
   37       1.576068595359e-10       5.822885950120e-15       2.586740766402e-13       0.000000000000e+00       1.052227680005e-10       1.119891538701e-11      -1.916726770242e-14 
   38       1.599587767489e-10       6.355889325308e-15       2.529081890595e-13       0.000000000000e+00       9.969204700150e-11       1.065726039252e-11      -1.536102303836e-14 
   39       1.623416616936e-10       6.924374020570e-15       2.456883755564e-13       0.000000000000e+00       9.457480668562e-11       1.015970825513e-11      -1.150109138999e-14 
   40       1.647437176626e-10       7.529907100216e-15       2.372043487359e-13       0.000000000000e+00       8.982221050815e-11       9.697452574866e-12      -8.259260586491e-15 
   41       1.671514311555e-10       8.173805318589e-15       2.276377712279e-13       0.000000000000e+00       8.537116132012e-11       9.260532240422e-12      -6.260349611672e-15 
   42       1.695697988331e-10       8.856154009291e-15       2.169750223671e-13       0.000000000000e+00       8.120854719168e-11       8.848059182519e-12      -5.495347255712e-15 
   43       1.720075271228e-10       9.576469238222e-15       2.051381304453e-13       0.000000000000e+00       7.732331895761e-11       8.460770057658e-12      -5.729845532021e-15 
   44       1.744711768058e-10       1.033394031406e-14       1.920344545779e-13       0.000000000000e+00       7.368721233239e-11       8.098091894407e-12      -6.658303283008e-15 
   45       1.769649652242e-10       1.112772320189e-14       1.775566645339e-13       0.000000000000e+00       7.026484183289e-11       7.758550175931e-12      -7.945379391608e-15 
   46       1.794907263195e-10       1.195797164924e-14       1.615852632786e-13       0.000000000000e+00       6.705081045461e-11       7.441404660823e-12      -9.375446619418e-15 
   47       1.820474882618e-10       1.282508091793e-14       1.439849488076e-13       0.000000000000e+00       6.404136321356e-11       7.145310532007e-12      -1.073999594467e-14 
   48       1.846311512943e-10       1.372939992394e-14       1.246025904680e-13       0.000000000000e+00       6.122319425099e-11       6.867759094000e-12      -1.179372982965e-14 
   49       1.872342268195e-10       1.467122962659e-14       1.032661919112e-13       0.000000000000e+00       5.857273667104e-11       6.604994860835e-12      -1.225263205613e-14 
   50       1.898489483888e-10       1.565081204900e-14       7.983170877842e-14       0.000000000000e+00       5.606325779089e-11       6.353104162746e-12      -1.188409389745e-14 
   51       1.924782055069e-10       1.666829756286e-14       5.434088936622e-14       0.000000000000e+00       5.369006294808e-11       6.111821676401e-12      -1.081061099175e-14 
   52       1.951271266801e-10       1.772376593906e-14       2.690448542567e-14       0.000000000000e+00       5.145090542259e-11       5.881613815664e-12      -9.285185144198e-15 
   53       1.977998670967e-10       1.881723293749e-14      -2.340671851432e-15       0.000000000000e+00       4.933844424275e-11       5.662570396037e-12      -7.608817792373e-15 
   54       2.004995063912e-10       1.994864825526e-14      -3.323045689247e-14       0.000000000000e+00       4.733990133645e-11       5.454376852877e-12      -6.132911904619e-15 
   55       2.032281598604e-10       2.111793453680e-14      -6.561344880665e-14       0.000000000000e+00       4.544095851188e-11       5.256504342979e-12      -5.176875911542e-15 
   56       2.059875786774e-10       2.232512045262e-14      -9.948534798134e-14       0.000000000000e+00       4.363936750252e-11       5.068898997139e-12      -4.751463204449e-15 
   57       2.087785197099e-10       2.357023708644e-14      -1.348858233910e-13       0.000000000000e+00       4.193412042283e-11       4.891415230753e-12      -4.770911342500e-15 
   58       2.116004532579e-10       2.485327932804e-14      -1.718606064897e-13       0.000000000000e+00       4.032133236980e-11       4.723593989248e-12      -5.130836166941e-15 
   59       2.144514691336e-10       2.617420542129e-14      -2.104618820113e-13       0.000000000000e+00       3.879406376230e-11       4.564643455259e-12      -5.707329882539e-15 
   60       2.173281827429e-10       2.753293651235e-14      -2.507486787700e-13       0.000000000000e+00       3.734214268037e-11       4.413419755816e-12      -6.356059139009e-15 
   61       2.202271878389e-10       2.892928778861e-14      -2.927744229449e-13       0.000000000000e+00       3.595498835970e-11       4.268734934081e-12      -6.942155789230e-15 
   62       2.231500083054e-10       3.036274485576e-14      -3.365454491161e-13       0.000000000000e+00       3.463122418451e-11       4.130405290109e-12      -7.439769768691e-15 
   63       2.260990962516e-10       3.183263613591e-14      -3.820538276861e-13       0.000000000000e+00       3.337091699190e-11       3.998405186869e-12      -7.853363152782e-15 
   64       2.290763394618e-10       3.333819427697e-14      -4.292893644325e-13       0.000000000000e+00       3.217268551630e-11       3.872551817502e-12      -8.188962930304e-15 
   65       2.320830165510e-10       3.487855353028e-14      -4.782395839836e-13       0.000000000000e+00       3.103361795313e-11       3.752496296356e-12      -8.454236113245e-15 
   66       2.351197521204e-10       3.645274712810e-14      -5.288897132945e-13       0.000000000000e+00       2.994918952255e-11       3.637714750022e-12      -8.658564846565e-15 
   67       2.381864719130e-10       3.805970466124e-14      -5.812226651221e-13       0.000000000000e+00       2.891318003313e-11       3.527499408377e-12      -8.813121517975e-15 
   68       2.412828840757e-10       3.969836393381e-14      -6.352203053025e-13       0.000000000000e+00       2.791933438324e-11       3.421154878334e-12      -8.929556325542e-15 
   69       2.444101364253e-10       4.136803870828e-14      -6.908675897002e-13       0.000000000000e+00       2.696691904069e-11       3.318653061307e-12      -9.015583280426e-15 
   70       2.475694159707e-10       4.306812110654e-14      -7.481492396801e-13       0.000000000000e+00       2.605614853303e-11       3.220095544551e-12      -9.078630633137e-15 
   71       2.507614216916e-10       4.479797402568e-14      -8.070485484916e-13       0.000000000000e+00       2.518650494699e-11       3.125516564303e-12      -9.127188192713e-15 
   72       2.539863331496e-10       4.655693144329e-14      -8.675473975780e-13       0.000000000000e+00       2.435670006859e-11       3.034879344467e-12      -9.170846949476e-15 
   73       2.572437790991e-10       4.834429872287e-14      -9.296262728859e-13       0.000000000000e+00       2.356463752323e-11       2.948072435291e-12      -9.220338697813e-15 
   74       2.605328060980e-10       5.015935291922e-14      -9.932642811747e-13       0.000000000000e+00       2.280737491585e-11       2.864906052039e-12      -9.287575658934e-15 
   75       2.638518471190e-10       5.200134308375e-14      -1.058439166326e-12       0.000000000000e+00       2.208108597102e-11       2.785108413674e-12      -9.385690103651e-15 
   76       2.671993636125e-10       5.386934708876e-14      -1.125123260863e-12       0.000000000000e+00       2.138200990262e-11       2.708398143417e-12      -9.525203559185e-15 
   77       2.705759762539e-10       5.576181128279e-14      -1.193270452146e-12       0.000000000000e+00       2.070958308051e-11       2.634724806105e-12      -9.701640359665e-15 
   78       2.739826675260e-10       5.767692705398e-14      -1.262826857988e-12       0.000000000000e+00       2.006381230785e-11       2.564065785886e-12      -9.905716859333e-15 
   79       2.774201254417e-10       5.961276426982e-14      -1.333734614634e-12       0.000000000000e+00       1.944432092285e-11       2.496352047994e-12      -1.012697236745e-14 
   80       2.808887259647e-10       6.156726864038e-14      -1.405931809717e-12       0.000000000000e+00       1.885033118279e-11       2.431466037137e-12      -1.035372940504e-14 
   81       2.843885154303e-10       6.353825908147e-14      -1.479352415218e-12       0.000000000000e+00       1.828064664814e-11       2.369239575885e-12      -1.057305396168e-14 
   82       2.879191929657e-10       6.552342507777e-14      -1.553926220424e-12       0.000000000000e+00       1.773363456658e-11       2.309451763060e-12      -1.077071575221e-14 
   83       2.914800929106e-10       6.752032404608e-14      -1.629578764881e-12       0.000000000000e+00       1.720720825707e-11       2.251826872120e-12      -1.093114847350e-14 
   84       2.950705460704e-10       6.952661719905e-14      -1.706239914334e-12       0.000000000000e+00       1.669933397207e-11       2.196100263381e-12      -1.104068218911e-14 
   85       2.986910707919e-10       7.154082783906e-14      -1.783871368898e-12       0.000000000000e+00       1.620968661660e-11       2.142233278910e-12      -1.109794323209e-14 
   86       3.023423480295e-10       7.356170452340e-14      -1.862443613441e-12       0.000000000000e+00       1.573823749061e-11       2.090230285089e-12      -1.110511353462e-14 
   87       3.060248490222e-10       7.558799509202e-14      -1.941927757130e-12       0.000000000000e+00       1.528474554400e-11       2.040072881861e-12      -1.106482681653e-14 
   88       3.097388240808e-10       7.761844803907e-14      -2.022295611656e-12       0.000000000000e+00       1.484874857548e-11       1.991718944211e-12      -1.098018383578e-14 
   89       3.134842913755e-10       7.965181388453e-14      -2.103519769441e-12       0.000000000000e+00       1.442955443140e-11       1.945101663637e-12      -1.085476763905e-14 
   90       3.172610257237e-10       8.168684654575e-14      -2.185573681866e-12       0.000000000000e+00       1.402623220452e-11       1.900128589634e-12      -1.069265881212e-14 
   91       3.210685473773e-10       8.372230470911e-14      -2.268431737479e-12       0.000000000000e+00       1.363760343287e-11       1.856680671169e-12      -1.049845073046e-14 
   92       3.249061108102e-10       8.575695320153e-14      -2.352069340224e-12       0.000000000000e+00       1.326223329855e-11       1.814611298157e-12      -1.027726480972e-14 
   93       3.287729680426e-10       8.778945748236e-14      -2.436455230505e-12       0.000000000000e+00       1.289877088465e-11       1.773782109683e-12      -1.003427270355e-14 
   94       3.326692282697e-10       8.981804598773e-14      -2.521526957427e-12       0.000000000000e+00       1.254704760137e-11       1.734178661165e-12      -9.773147570011e-15 
   95       3.365951073920e-10       9.184079930239e-14      -2.607211845030e-12       0.000000000000e+00       1.220712845948e-11       1.695810462274e-12      -9.497406988385e-15 
   96       3.405506576546e-10       9.385575242031e-14      -2.693434392858e-12       0.000000000000e+00       1.187897377614e-11       1.658675312492e-12      -9.210893626053e-15 
   97       3.445357602028e-10       9.586089464912e-14      -2.780116247692e-12       0.000000000000e+00       1.156243516524e-11       1.622758847277e-12      -8.917783720964e-15 
   98       3.485501176389e-10       9.785416951462e-14      -2.867176175289e-12       0.000000000000e+00       1.125725152762e-11       1.588034084239e-12      -8.622595564081e-15 
   99       3.525932465775e-10       9.983347466521e-14      -2.954530032116e-12       0.000000000000e+00       1.096304504141e-11       1.554460969300e-12      -8.330197981823e-15 
  100       3.566644702020e-10       1.017966617764e-13      -3.042090737089e-12       0.000000000000e+00       1.067931715226e-11       1.521985922870e-12      -8.045818818520e-15 
  101       3.607629108207e-10       1.037415364551e-13      -3.129768243308e-12       0.000000000000e+00       1.040544456367e-11       1.490541386009e-12      -7.775053418858e-15 
  102       3.648874824226e-10       1.056658581445e-13      -3.217469509795e-12       0.000000000000e+00       1.014067522724e-11       1.460045366604e-12      -7.523873110324e-15 
  103       3.690368832336e-10       1.075673400281e-13      -3.305098473232e-12       0.000000000000e+00       9.884124332945e-12       1.430400985527e-12      -7.298633685660e-15 
  104       3.732098745729e-10       1.094437573203e-13      -3.392562344687e-12       0.000000000000e+00       9.634974787663e-12       1.401519044788e-12      -7.104611650843e-15 
  105       3.774061763562e-10       1.112932890038e-13      -3.479791529407e-12       0.000000000000e+00       9.393118129761e-12       1.373390181462e-12      -6.941369506533e-15 
  106       3.816256792472e-10       1.131142222928e-13      -3.566722357734e-12       0.000000000000e+00       9.158593120495e-12       1.346021660007e-12      -6.806777282815e-15 
  107       3.858681649141e-10       1.149048494514e-13      -3.653291041153e-12       0.000000000000e+00       8.931387245788e-12       1.319415022255e-12      -6.698421262228e-15 
