# dimensionless total lensed [l(l+1)/2pi] C_l's
# for l=2 to 2500, i.e. number of multipoles equal to 2499
#
# -> if you prefer output in CAMB/HealPix/LensPix units/order, set 'format' to 'camb' in input file
# -> if you don't want to see such a header, set 'headers' to 'no' in input file
# -> for CMB lensing (phi), these are C_l^phi-phi for the lensing potential.
#    Remember the conversion factors:
#    C_l^dd (deflection) = l(l+1) C_l^phi-phi
#    C_l^gg (shear/convergence) = 1/4 (l(l+1))^2 C_l^phi-phi
#
# 1:l     2:TT                     3:EE                     4:TE                     5:BB                     6:phiphi                 7:TPhi                   8:Ephi               
    2       1.494368248808e-10       7.261212276229e-15       4.802510413927e-13       2.290887176937e-19       8.688473288127e-09       4.835811595711e-10      -2.505290111314e-12 
    3       1.408490824593e-10       1.229830399426e-14       6.045280070185e-13       4.583984495778e-19       5.383570405737e-09       3.445681511763e-10      -2.201980518155e-12 
    4       1.323902427276e-10       1.435931095806e-14       6.250556980980e-13       7.644809137426e-19       3.745173832719e-09       2.620160850341e-10      -1.756097020535e-12 
    5       1.256897900535e-10       1.328184304695e-14       5.850959354415e-13       1.147609810594e-18       2.792921349189e-09       2.077395452475e-10      -1.303323718025e-12 
    6       1.207557224218e-10       1.025154769123e-14       5.146614404004e-13       1.608109896897e-18       2.178416255643e-09       1.695182912394e-10      -8.904390366730e-13 
    7       1.172819701148e-10       6.797325810964e-15       4.341074123228e-13       2.146346421113e-18       1.755547831728e-09       1.413188502629e-10      -5.414783991812e-13 
    8       1.149623568192e-10       4.019510499357e-15       3.556301437539e-13       2.762713406705e-18       1.450327753870e-09       1.197896536642e-10      -2.671113509254e-13 
    9       1.135497275662e-10       2.327216795517e-15       2.864252867390e-13       3.457621241935e-18       1.221133483640e-09       1.029189016087e-10      -6.894597910687e-14 
   10       1.128263745546e-10       1.570595041943e-15       2.305333765587e-13       4.231484060311e-18       1.043612169370e-09       8.943656135916e-11       5.830945532785e-14 
   11       1.126583979972e-10       1.349914911131e-15       1.895913366784e-13       5.084707401867e-18       8.786261827511e-10       7.876465839463e-11       1.241826615610e-13 
   12       1.129227637814e-10       1.295704771225e-15       1.632586633508e-13       6.017676631801e-18       7.674294582290e-10       6.957828515075e-11       1.431684596257e-13 
   13       1.135148932615e-10       1.209704441159e-15       1.498048109226e-13       7.030746560036e-18       6.761787927463e-10       6.209358408075e-11       1.289931791227e-13 
   14       1.143358118750e-10       1.063358369231e-15       1.466379737305e-13       8.124232654547e-18       6.002801925681e-10       5.560457263978e-11       9.423577145898e-14 
   15       1.153891356538e-10       9.168319936805e-16       1.507739160514e-13       9.298404174636e-18       5.364129107585e-10       5.018961108358e-11       5.113184138772e-14 
   16       1.166227858354e-10       8.325195276036e-16       1.592572277264e-13       1.055347947072e-17       4.821267004508e-10       4.559072093674e-11       8.790448360259e-15 
   17       1.179784984176e-10       8.290693527563e-16       1.695547181942e-13       1.188962360756e-17       4.355713016069e-10       4.161653262437e-11      -2.643209762969e-14 
   18       1.194411421812e-10       8.800210835720e-16       1.798285323460e-13       1.330694723839e-17       3.951739328094e-10       3.810474963238e-11      -5.099347020732e-14 
   19       1.210188200332e-10       9.526045851925e-16       1.891302364410e-13       1.480551462954e-17       3.602917009344e-10       3.501811530442e-11      -6.401204902014e-14 
   20       1.226673306716e-10       1.012712062841e-15       1.967348011352e-13       1.638533583268e-17       3.295763389576e-10       3.228508015066e-11      -6.630143021108e-14 
   21       1.243959931703e-10       1.062547691192e-15       2.027108061926e-13       1.804638988098e-17       3.025436163236e-10       2.985944270387e-11      -5.994980508605e-14 
   22       1.261977694147e-10       1.119438464832e-15       2.074923252076e-13       1.978861547242e-17       2.785454966080e-10       2.766492375934e-11      -4.823917014977e-14 
   23       1.280644134261e-10       1.202540762383e-15       2.115398216273e-13       2.161193873076e-17       2.572508690175e-10       2.567716537938e-11      -3.407765147439e-14 
   24       1.299687251995e-10       1.330505071187e-15       2.153913415535e-13       2.351626384099e-17       2.381661994202e-10       2.386901822324e-11      -2.053823602810e-14 
   25       1.319250396899e-10       1.504251749842e-15       2.195209163085e-13       2.550150564148e-17       2.210662384236e-10       2.224560104818e-11      -9.462068296296e-15 
   26       1.339412713598e-10       1.717339843366e-15       2.243482820105e-13       2.756757813627e-17       2.056407648139e-10       2.080234838837e-11      -2.206325055192e-15 
   27       1.359997415450e-10       1.963033574764e-15       2.299256513295e-13       2.971442319884e-17       1.917040822834e-10       1.950740611217e-11       9.712744266554e-16 
   28       1.380676097494e-10       2.234374632629e-15       2.361134551421e-13       3.194200327049e-17       1.790152268674e-10       1.831358167237e-11       3.809179310532e-16 
   29       1.401548771740e-10       2.530918817175e-15       2.425975262961e-13       3.425033504213e-17       1.675090009089e-10       1.721749319551e-11      -3.189693087351e-15 
   30       1.422751758870e-10       2.854183737519e-15       2.489087266169e-13       3.663947033724e-17       1.570614595187e-10       1.622082758236e-11      -8.512187750874e-15 
   31       1.444317502533e-10       3.205074465951e-15       2.545007934965e-13       3.910949620815e-17       1.474590115020e-10       1.531576753384e-11      -1.414625526645e-14 
   32       1.466275557458e-10       3.581476812260e-15       2.590100335520e-13       4.166055873927e-17       1.386518092647e-10       1.449184167725e-11      -1.923163570838e-14 
   33       1.488562170959e-10       3.979661019412e-15       2.620825532350e-13       4.429285589539e-17       1.305773384718e-10       1.372968989393e-11      -2.296585116203e-14 
   34       1.511050429222e-10       4.396370565164e-15       2.633764920200e-13       4.700663181673e-17       1.231223216241e-10       1.300626357329e-11      -2.460565356668e-14 
   35       1.533799038448e-10       4.834180867884e-15       2.628176007219e-13       4.980216187455e-17       1.162484264338e-10       1.232286052697e-11      -2.421833494479e-14 
   36       1.556873859172e-10       5.298080835614e-15       2.604351088965e-13       5.267976974951e-17       1.099003296799e-10       1.168606679407e-11      -2.220300590017e-14 
   37       1.580288783928e-10       5.793242268833e-15       2.562989867879e-13       5.563981366262e-17       1.039952063721e-10       1.109955686681e-11      -1.906540067787e-14 
   38       1.604055147497e-10       6.321944603514e-15       2.505252865840e-13       5.868261119517e-17       9.851768876194e-11       1.056227164218e-11      -1.528608057450e-14 
   39       1.628136465682e-10       6.885679597330e-15       2.432777977331e-13       6.180849467469e-17       9.345029941906e-11       1.006910527371e-11      -1.142377108759e-14 
   40       1.652426585148e-10       7.485975081156e-15       2.347706137464e-13       6.501783427346e-17       8.874456949892e-11       9.610971603941e-12      -8.160553451895e-15 
   41       1.676800621489e-10       8.124108708359e-15       2.252088529885e-13       6.831100284484e-17       8.433790067648e-11       9.177663701015e-12      -6.132369449743e-15 
   42       1.701303905805e-10       8.800136793652e-15       2.145801518382e-13       7.168825111047e-17       8.021724932575e-11       8.768342923010e-12      -5.335718281367e-15 
   43       1.726013211355e-10       9.513549564644e-15       2.028005190869e-13       7.514979573123e-17       7.637162492844e-11       8.383910634360e-12      -5.540742843651e-15 
   44       1.750981670500e-10       1.026351107411e-14       1.897696966143e-13       7.869585301375e-17       7.277298214781e-11       8.024006574652e-12      -6.447312943239e-15 
   45       1.776240056218e-10       1.104916971242e-14       1.753727028663e-13       8.232660400958e-17       6.938622317773e-11       7.687359031808e-12      -7.724986237193e-15 
   46       1.801807622781e-10       1.187074649418e-14       1.594878338047e-13       8.604207804209e-17       6.620596917678e-11       7.373218916263e-12      -9.157802333981e-15 
   47       1.827679785656e-10       1.272873888533e-14       1.419790181285e-13       8.984223387362e-17       6.322847321752e-11       7.080167664858e-12      -1.053507792888e-14 
   48       1.853821870962e-10       1.362361847533e-14       1.226922726460e-13       9.372698907856e-17       6.044053017742e-11       6.805613364076e-12      -1.160876540622e-14 
   49       1.880166574112e-10       1.455583044370e-14       1.014546632940e-13       9.769621776463e-17       5.781877364977e-11       6.545707451748e-12      -1.209148911585e-14 
   50       1.906642953395e-10       1.552575199044e-14       7.812103679563e-14       1.017497434225e-16       5.533670399346e-11       6.296455075971e-12      -1.174709382392e-14 
   51       1.933278584679e-10       1.653355556282e-14       5.273158020141e-14       1.058873204727e-16       5.298965262511e-11       6.057594738750e-12      -1.069582140826e-14 
   52       1.960120742540e-10       1.757930758089e-14       2.539523316261e-14       1.101086437710e-16       5.077537866918e-11       5.829627751564e-12      -9.188576510684e-15 
   53       1.987206256539e-10       1.866300382261e-14      -3.753164409276e-15       1.144133505938e-16       4.868659884846e-11       5.612690135942e-12      -7.523987451422e-15 
   54       2.014560453848e-10       1.978456695926e-14      -3.455166329330e-14       1.188010181300e-16       4.671064821325e-11       5.406525497278e-12      -6.050796019657e-15 
   55       2.042199575297e-10       2.094388577153e-14      -6.684964171222e-14       1.232712098793e-16       4.483333830558e-11       5.210658254788e-12      -5.086379915800e-15 
   56       2.070141148679e-10       2.214094985231e-14      -1.006370670146e-13       1.278236340900e-16       4.305243126560e-11       5.025025869194e-12      -4.643142723241e-15 
   57       2.098394340332e-10       2.337574405004e-14      -1.359452276249e-13       1.324580202874e-16       4.136691872301e-11       4.849456160322e-12      -4.638339237510e-15 
   58       2.126955805534e-10       2.464820889743e-14      -1.728102289328e-13       1.371740732270e-16       3.977294571879e-11       4.683461811906e-12      -4.971128980489e-15 
   59       2.155808766463e-10       2.595823977085e-14      -2.112733288857e-13       1.419714722915e-16       3.826363497084e-11       4.526221051481e-12      -5.521698431924e-15 
   60       2.184922090159e-10       2.730568604957e-14      -2.513812735810e-13       1.468498708886e-16       3.682891113958e-11       4.376558330286e-12      -6.150383260940e-15 
   61       2.214264089315e-10       2.869029557519e-14      -2.931774671155e-13       1.518089686453e-16       3.545829510470e-11       4.233260128491e-12      -6.726420628749e-15 
   62       2.243849630479e-10       3.011153536336e-14      -3.366724058176e-13       1.568487482898e-16       3.415041728368e-11       4.096148912836e-12      -7.223733455721e-15 
   63       2.273702011740e-10       3.156872897391e-14      -3.818671729742e-13       1.619692911134e-16       3.290533755393e-11       3.965217053514e-12      -7.645186190605e-15 
   64       2.303838727068e-10       3.306110513449e-14      -4.287620628530e-13       1.671707105381e-16       3.172168378649e-11       3.840304455770e-12      -7.994913059093e-15 
   65       2.334271011426e-10       3.458779516426e-14      -4.773566254728e-13       1.724531538246e-16       3.059657034788e-11       3.721089873072e-12      -8.278380435093e-15 
   66       2.365003385865e-10       3.614783039770e-14      -5.276497113742e-13       1.778168037791e-16       2.952551660191e-11       3.607082220282e-12      -8.502449211986e-15 
   67       2.396033202633e-10       3.774013960827e-14      -5.796395163899e-13       1.832618804607e-16       2.850236541146e-11       3.497611886825e-12      -8.675437173900e-15 
   68       2.427355825421e-10       3.936367730650e-14      -6.333211849753e-13       1.887886355406e-16       2.752092548335e-11       3.392019356387e-12      -8.806380804180e-15 
   69       2.458982405801e-10       4.101784458058e-14      -6.886789562040e-13       1.943973302376e-16       2.658046700920e-11       3.290284864734e-12      -8.902507600579e-15 
   70       2.490924908116e-10       4.270214929282e-14      -7.456924994601e-13       2.000882559577e-16       2.568119829562e-11       3.192511307953e-12      -8.971361277749e-15 
   71       2.523190487839e-10       4.441608350742e-14      -8.043391977145e-13       2.058617427393e-16       2.482260370922e-11       3.098734649255e-12      -9.021598158349e-15 
   72       2.555781180797e-10       4.615912426130e-14      -8.645941298551e-13       2.117181607719e-16       2.400340626654e-11       3.008920278348e-12      -9.063029069561e-15 
   73       2.588693592398e-10       4.793073433508e-14      -9.264300530158e-13       2.176579219158e-16       2.322153022388e-11       2.922959370810e-12      -9.106661239606e-15 
   74       2.621918586854e-10       4.973036302392e-14      -9.898173849061e-13       2.236814812211e-16       2.247406366717e-11       2.840665247462e-12      -9.164740194258e-15 
   75       2.655440976408e-10       5.155744690847e-14      -1.054724186141e-12       2.297893384472e-16       2.175722110190e-11       2.761769733740e-12      -9.250791653352e-15 
   76       2.689245823599e-10       5.341123094423e-14      -1.121114428955e-12       2.359819509801e-16       2.106728201568e-11       2.685992647594e-12      -9.375830597648e-15 
   77       2.723339361809e-10       5.529019236006e-14      -1.188942477932e-12       2.422594508928e-16       2.040368685424e-11       2.613272939915e-12      -9.536097764853e-15 
   78       2.757731342791e-10       5.719251261732e-14      -1.258157566030e-12       2.486218788098e-16       1.976644026792e-11       2.543573285224e-12      -9.723152572104e-15 
   79       2.792428589731e-10       5.911624490502e-14      -1.328705366952e-12       2.550692676397e-16       1.915516810829e-11       2.476808585971e-12      -9.927471448749e-15 
   80       2.827434822084e-10       6.105931122628e-14      -1.400527942339e-12       2.616016422770e-16       1.856910003115e-11       2.412843831464e-12      -1.013841113759e-14 
   81       2.862750480400e-10       6.301949948466e-14      -1.473563688958e-12       2.682190193050e-16       1.800705209949e-11       2.351491956805e-12      -1.034417199612e-14 
   82       2.898372551159e-10       6.499446057061e-14      -1.547747285893e-12       2.749214066981e-16       1.746740938650e-11       2.292511701823e-12      -1.053176129774e-14 
   83       2.934294391602e-10       6.698170544779e-14      -1.623009641736e-12       2.817088035244e-16       1.694810857855e-11       2.235605470002e-12      -1.068695653304e-14 
   84       2.970509301959e-10       6.897885280428e-14      -1.699285464481e-12       2.885812103021e-16       1.644713876866e-11       2.180490654875e-12      -1.079718237772e-14 
   85       3.007022306272e-10       7.098442555990e-14      -1.776537528768e-12       2.955386626939e-16       1.596417733389e-11       2.127131895116e-12      -1.086076997822e-14 
   86       3.043840012502e-10       7.299718167484e-14      -1.854736353520e-12       3.025812028791e-16       1.549919461612e-11       2.075543575901e-12      -1.087917251110e-14 
   87       3.080966928240e-10       7.501587660364e-14      -1.933853011112e-12       3.097088692792e-16       1.505195128391e-11       2.025718891841e-12      -1.085420008432e-14 
   88       3.118405348519e-10       7.703926459270e-14      -2.013859202684e-12       3.169216964393e-16       1.462198964464e-11       1.977628940666e-12      -1.078803200764e-14 
   89       3.156155243626e-10       7.906609997786e-14      -2.094727333440e-12       3.242197149098e-16       1.420862495651e-11       1.931221816901e-12      -1.068322906311e-14 
   90       3.194214146917e-10       8.109513848194e-14      -2.176430587950e-12       3.316029511278e-16       1.381093674067e-11       1.886421705548e-12      -1.054274577542e-14 
   91       3.232577042627e-10       8.312513851234e-14      -2.258943005454e-12       3.390714272987e-16       1.342776009324e-11       1.843127975765e-12      -1.036994268240e-14 
   92       3.271236253685e-10       8.515486245856e-14      -2.342239555166e-12       3.466251612778e-16       1.305767699745e-11       1.801214274545e-12      -1.016859860536e-14 
   93       3.310184106432e-10       8.718297930823e-14      -2.426288710871e-12       3.542642720482e-16       1.269935237059e-11       1.760560255318e-12      -9.942708395526e-15 
   94       3.349421626901e-10       8.920775292239e-14      -2.511028733657e-12       3.619893145606e-16       1.235261889015e-11       1.721154190993e-12      -9.695814724789e-15 
   95       3.388950951120e-10       9.122730905772e-14      -2.596387944737e-12       3.698009952689e-16       1.201754002173e-11       1.683004190041e-12      -9.431598015374e-15 
   96       3.428772591668e-10       9.323972981439e-14      -2.682291881029e-12       3.777000723336e-16       1.169407591895e-11       1.646106484478e-12      -9.154091210000e-15 
   97       3.468885363608e-10       9.524305357909e-14      -2.768663267501e-12       3.856873569531e-16       1.138207946767e-11       1.610444971524e-12      -8.867689097573e-15 
   98       3.509286310412e-10       9.723527496795e-14      -2.855421989516e-12       3.937637146946e-16       1.108129233021e-11       1.575990755254e-12      -8.577157638871e-15 
   99       3.549970629898e-10       9.921434476957e-14      -2.942485065167e-12       4.019300668250e-16       1.079134098947e-11       1.542701688251e-12      -8.287643292238e-15 
  100       3.590931600155e-10       1.011781698880e-13      -3.029766617627e-12       4.101873916423e-16       1.051173279321e-11       1.510521913263e-12      -8.004682339268e-15 
  101       3.632160505480e-10       1.031246132856e-13      -3.117177847484e-12       4.185367258062e-16       1.024185199818e-11       1.479381404855e-12      -7.734210210500e-15 
  102       3.673646562304e-10       1.050514939261e-13      -3.204627005089e-12       4.269791656695e-16       9.980955814327e-12       1.449195511061e-12      -7.482570811104e-15 
  103       3.715376845122e-10       1.069565867177e-13      -3.292019362894e-12       4.355158686087e-16       9.728170449022e-12       1.419864495043e-12      -7.256525846569e-15 
  104       3.757339057411e-10       1.088377237297e-13      -3.379263364775e-12       4.441479392193e-16       9.482688975564e-12       1.391296398129e-12      -7.061714697132e-15 
  105       3.799530430187e-10       1.106931135371e-13      -3.466290079607e-12       4.528760675254e-16       9.244403900370e-12       1.363480133539e-12      -6.897777012549e-15 
  106       3.841949893021e-10       1.125210651096e-13      -3.553036336257e-12       4.617008441510e-16       9.013353069446e-12       1.336421458037e-12      -6.762585569504e-15 
  107       3.884595294109e-10       1.143198914326e-13      -3.639438821002e-12       4.706228711572e-16       8.789523757668e-12       1.310120332634e-12      -6.653729278694e-15 
