# dimensionless total [l(l+1)/2pi] C_l's
# for l=2 to 3000, i.e. number of multipoles equal to 2999
#
# -> if you prefer output in CAMB/HealPix/LensPix units/order, set 'format' to 'camb' in input file
# -> if you don't want to see such a header, set 'headers' to 'no' in input file
# -> for CMB lensing (phi), these are C_l^phi-phi for the lensing potential.
#    Remember the conversion factors:
#    C_l^dd (deflection) = l(l+1) C_l^phi-phi
#    C_l^gg (shear/convergence) = 1/4 (l(l+1))^2 C_l^phi-phi
#
# 1:l     2:TT                     3:EE                     4:TE                     5:BB                     6:phiphi                 7:TPhi                   8:Ephi               
    2       1.494891978712e-10       7.283171579706e-15       4.816691284680e-13       0.000000000000e+00       8.708863141807e-09       4.837384599287e-10      -2.506356430428e-12 
    3       1.408944837213e-10       1.232784499659e-14       6.054203785806e-13       0.000000000000e+00       5.380427021624e-09       3.452953604364e-10      -2.205016921687e-12 
    4       1.324243365918e-10       1.439449453034e-14       6.260856187931e-13       0.000000000000e+00       3.748495244809e-09       2.627067580727e-10      -1.758737849683e-12 
    5       1.257166023594e-10       1.331488443464e-14       5.861672356094e-13       0.000000000000e+00       2.799244447716e-09       2.083420138343e-10      -1.305412257728e-12 
    6       1.207772336329e-10       1.027635315298e-14       5.156709991120e-13       0.000000000000e+00       2.186294200228e-09       1.700597762527e-10      -8.920091220337e-13 
    7       1.173010231255e-10       6.812724094229e-15       4.349955236933e-13       0.000000000000e+00       1.762527164312e-09       1.417928957029e-10      -5.425844828362e-13 
    8       1.149783971812e-10       4.026916127923e-15       3.563705172810e-13       0.000000000000e+00       1.455002916544e-09       1.201909584299e-10      -2.678531446919e-13 
    9       1.135619538778e-10       2.328938570295e-15       2.870225973289e-13       0.000000000000e+00       1.223892594062e-09       1.032510966283e-10      -6.943701594449e-14 
   10       1.128356653724e-10       1.568584363837e-15       2.309879408082e-13       0.000000000000e+00       1.045579753815e-09       8.972200886774e-11       5.794925671684e-14 
   11       1.126637731883e-10       1.345426450506e-15       1.899317580525e-13       0.000000000000e+00       8.820697193081e-10       7.901202005024e-11       1.238424481877e-13 
   12       1.129267244062e-10       1.289497008977e-15       1.635449666374e-13       0.000000000000e+00       7.705428312101e-10       6.981809758648e-11       1.427892277998e-13 
   13       1.135160918174e-10       1.202372388150e-15       1.500643237715e-13       0.000000000000e+00       6.790112853577e-10       6.232143043845e-11       1.285603067681e-13 
   14       1.143324221207e-10       1.055501709013e-15       1.468896543667e-13       0.000000000000e+00       6.028707129421e-10       5.582031030449e-11       9.380285264685e-14 
   15       1.153793271314e-10       9.088712110397e-16       1.510924517458e-13       0.000000000000e+00       5.387932969281e-10       5.039070467255e-11       5.073717104079e-14 
   16       1.166106372734e-10       8.245640739282e-16       1.596344324383e-13       0.000000000000e+00       4.843230103552e-10       4.578067405871e-11       8.428435240160e-15 
   17       1.179592068826e-10       8.210390434927e-16       1.699650738999e-13       0.000000000000e+00       4.376051337587e-10       4.179744109958e-11      -2.679877635646e-14 
   18       1.194160352580e-10       8.715406234645e-16       1.803156619670e-13       0.000000000000e+00       3.970634294406e-10       3.827181769318e-11      -5.138740075368e-14 
   19       1.209893260403e-10       9.432458599355e-16       1.897223597731e-13       0.000000000000e+00       3.620520489592e-10       3.516910928846e-11      -6.441723338561e-14 
   20       1.226311766289e-10       1.002150684622e-15       1.974105155148e-13       0.000000000000e+00       3.312205007039e-10       3.242358457404e-11      -6.666027745382e-14 
   21       1.243517985002e-10       1.050721919197e-15       2.034458503993e-13       0.000000000000e+00       3.040834592526e-10       2.998932801725e-11      -6.021426128433e-14 
   22       1.261463527619e-10       1.106614386966e-15       2.082778467164e-13       0.000000000000e+00       2.799905241303e-10       2.778803416140e-11      -4.839398029808e-14 
   23       1.280056656334e-10       1.189082405699e-15       2.123810543483e-13       0.000000000000e+00       2.586097633290e-10       2.579346438955e-11      -3.414107712530e-14 
   24       1.299008684910e-10       1.316735760012e-15       2.163057124673e-13       0.000000000000e+00       2.394463018232e-10       2.397695656786e-11      -2.056179242082e-14 
   25       1.318474020343e-10       1.490181325622e-15       2.205199138644e-13       0.000000000000e+00       2.222743285250e-10       2.234550530159e-11      -9.504355677844e-15 
   26       1.338549279775e-10       1.702656724407e-15       2.254278149510e-13       0.000000000000e+00       2.067826340250e-10       2.089707177425e-11      -2.315971158634e-15 
   27       1.359050575408e-10       1.947757723374e-15       2.310570948291e-13       0.000000000000e+00       1.927849917218e-10       1.959857011267e-11       7.883328086754e-16 
   28       1.379635435057e-10       2.219010303309e-15       2.372478112318e-13       0.000000000000e+00       1.800396601222e-10       1.840047733664e-11       1.670718178019e-16 
   29       1.400402840612e-10       2.515884920103e-15       2.437125822797e-13       0.000000000000e+00       1.684813208086e-10       1.729918605698e-11      -3.400361894490e-15 
   30       1.421492744392e-10       2.839579361857e-15       2.500323705502e-13       0.000000000000e+00       1.579856358346e-10       1.629686572911e-11      -8.717192337917e-15 
   31       1.442941405664e-10       3.190693646649e-15       2.557055949785e-13       0.000000000000e+00       1.483382359515e-10       1.538624866719e-11      -1.437220434218e-14 
   32       1.464778754374e-10       3.567219045391e-15       2.603403983511e-13       0.000000000000e+00       1.394891558848e-10       1.455725551878e-11      -1.948889407283e-14 
   33       1.486940246380e-10       3.965698589932e-15       2.635228619001e-13       0.000000000000e+00       1.313756899528e-10       1.379090744974e-11      -2.322941421525e-14 
   34       1.509298673553e-10       4.383120188376e-15       2.648536814540e-13       0.000000000000e+00       1.238841414914e-10       1.306445986763e-11      -2.481942893148e-14 
   35       1.531915543406e-10       4.821932518829e-15       2.642669039497e-13       0.000000000000e+00       1.169760731767e-10       1.237899739451e-11      -2.434448085245e-14 
   36       1.554860982694e-10       5.286845926114e-15       2.618250627230e-13       0.000000000000e+00       1.105959711037e-10       1.174064947809e-11      -2.224253541727e-14 
   37       1.578152358587e-10       5.782776293387e-15       2.576326008834e-13       0.000000000000e+00       1.046606902733e-10       1.115261937416e-11      -1.905697190887e-14 
   38       1.601798111026e-10       6.312074246951e-15       2.518142687195e-13       0.000000000000e+00       9.915483548599e-11       1.061378492273e-11      -1.526841299929e-14 
   39       1.625756163769e-10       6.876426651092e-15       2.445351736205e-13       0.000000000000e+00       9.406088308897e-11       1.011909642167e-11      -1.142252238246e-14 
   40       1.649913459045e-10       7.477602704411e-15       2.360105298552e-13       0.000000000000e+00       8.933016922941e-11       9.659530100828e-12      -8.184613225707e-15 
   41       1.674139115531e-10       8.117106522868e-15       2.264451162127e-13       0.000000000000e+00       8.489983068068e-11       9.224918126204e-12      -6.174236737314e-15 
   42       1.698481105757e-10       8.794991327728e-15       2.158205453357e-13       0.000000000000e+00       8.075678865142e-11       8.814337070664e-12      -5.386330973501e-15 
   43       1.723022127158e-10       9.510664516314e-15       2.040439248205e-13       0.000000000000e+00       7.689002265470e-11       8.428547781231e-12      -5.594138406509e-15 
   44       1.747822505317e-10       1.026318431824e-14       1.910042291981e-13       0.000000000000e+00       7.327137190033e-11       8.067018806255e-12      -6.501407836065e-15 
   45       1.772919613504e-10       1.105158924338e-14       1.765766468201e-13       0.000000000000e+00       6.986558637505e-11       7.728333598166e-12      -7.781489648707e-15 
   46       1.798332288749e-10       1.187605327171e-14       1.606402488375e-13       0.000000000000e+00       6.666727833484e-11       7.411820368959e-12      -9.219111235367e-15 
   47       1.824053141871e-10       1.273704036335e-14       1.430633802477e-13       0.000000000000e+00       6.367269712221e-11       7.116219595539e-12      -1.060336992539e-14 
   48       1.850044040040e-10       1.363498327073e-14       1.236975097598e-13       0.000000000000e+00       6.086858431073e-11       6.839127844349e-12      -1.168592234592e-14 
   49       1.876233528105e-10       1.457028275755e-14       1.023762489371e-13       0.000000000000e+00       5.823146682734e-11       6.576916013344e-12      -1.217901604118e-14 
   50       1.902546959595e-10       1.554327957114e-14       7.896127244708e-14       0.000000000000e+00       5.573472095216e-11       6.325784788022e-12      -1.184597241261e-14 
   51       1.929012514127e-10       1.655416320300e-14       5.349704887920e-14       0.000000000000e+00       5.337366475441e-11       6.085458434068e-12      -1.080615672313e-14 
   52       1.955679499838e-10       1.760303701228e-14       2.609641438651e-14       0.000000000000e+00       5.114605483306e-11       5.856352319202e-12      -9.309386286471e-15 
   53       1.982587144143e-10       1.868994129341e-14      -3.101460434688e-15       0.000000000000e+00       4.904457763568e-11       5.638495758371e-12      -7.653039989181e-15 
   54       2.009763554348e-10       1.981485121291e-14      -3.392984429120e-14       0.000000000000e+00       4.705650826904e-11       5.431503771674e-12      -6.184440560366e-15 
   55       2.037227488015e-10       2.097769976877e-14      -6.623527518018e-14       0.000000000000e+00       4.516758939645e-11       5.234781895730e-12      -5.219767945432e-15 
   56       2.064996560224e-10       2.217845807432e-14      -1.000147374010e-13       0.000000000000e+00       4.337557797007e-11       5.048264899289e-12      -4.771753027285e-15 
   57       2.093079254600e-10       2.341707140471e-14      -1.353104143785e-13       0.000000000000e+00       4.167946617771e-11       4.871812112226e-12      -4.758509912061e-15 
   58       2.121471382514e-10       2.469343485697e-14      -1.721710214313e-13       0.000000000000e+00       4.007538328022e-11       4.704971705370e-12      -5.080227196462e-15 
   59       2.150155153160e-10       2.600739226171e-14      -2.106522180728e-13       0.000000000000e+00       3.855641884098e-11       4.546961528437e-12      -5.618298202547e-15 
   60       2.179098243639e-10       2.735873509476e-14      -2.508170203127e-13       0.000000000000e+00       3.711244595555e-11       4.396649947960e-12      -6.234451212528e-15 
   61       2.208267914913e-10       2.874717124076e-14      -2.927226863993e-13       0.000000000000e+00       3.573293121561e-11       4.252858732106e-12      -6.799228684276e-15 
   62       2.237679165945e-10       3.017222555268e-14      -3.363770014955e-13       0.000000000000e+00       3.441650154739e-11       4.115394500583e-12      -7.286862521558e-15 
   63       2.267355787308e-10       3.163331493897e-14      -3.817728676089e-13       0.000000000000e+00       3.316322084328e-11       3.984215844947e-12      -7.700248079402e-15 
   64       2.297315825533e-10       3.312977453765e-14      -4.289009477366e-13       0.000000000000e+00       3.197171233691e-11       3.859122944861e-12      -8.043534601422e-15 
   65       2.327571130587e-10       3.466085567142e-14      -4.777496489780e-13       0.000000000000e+00       3.083907659957e-11       3.739748624328e-12      -8.322186675577e-15 
   66       2.358126903347e-10       3.622572380272e-14      -5.283051056494e-13       0.000000000000e+00       2.976080953662e-11       3.625549407928e-12      -8.543045689930e-15 
   67       2.388981243079e-10       3.782345648887e-14      -5.805511623971e-13       0.000000000000e+00       2.873072038389e-11       3.515796577052e-12      -8.714391288406e-15 
   68       2.420130202322e-10       3.945312501066e-14      -6.344702239609e-13       0.000000000000e+00       2.774258379905e-11       3.409779317092e-12      -8.845207435437e-15 
   69       2.451585152468e-10       4.111406303601e-14      -6.900460421528e-13       0.000000000000e+00       2.679566816530e-11       3.307481950321e-12      -8.942670547534e-15 
   70       2.483358140140e-10       4.280564897119e-14      -7.472614658528e-13       0.000000000000e+00       2.589018529955e-11       3.209028491754e-12      -9.014260454274e-15 
   71       2.515456385034e-10       4.452722719739e-14      -8.060976295097e-13       0.000000000000e+00       2.502561849218e-11       3.114479243472e-12      -9.068551132106e-15 
   72       2.547881968249e-10       4.627810816570e-14      -8.665339584191e-13       0.000000000000e+00       2.420068485377e-11       3.023827275173e-12      -9.115251817622e-15 
   73       2.580631520619e-10       4.805756849228e-14      -9.285481740026e-13       0.000000000000e+00       2.341329766165e-11       2.936994904731e-12      -9.165248120832e-15 
   74       2.613695911041e-10       4.986485105339e-14      -9.921162990864e-13       0.000000000000e+00       2.266052870667e-11       2.853830178748e-12      -9.230643138441e-15 
   75       2.647059934808e-10       5.169916508045e-14      -1.057212663180e-12       0.000000000000e+00       2.193857063978e-11       2.774103353114e-12      -9.324798567125e-15 
   76       2.680708622955e-10       5.355955417114e-14      -1.123806607659e-12       0.000000000000e+00       2.124368136253e-11       2.697569224628e-12      -9.458525753439e-15 
   77       2.714648187538e-10       5.544447232511e-14      -1.191851896006e-12       0.000000000000e+00       2.057529925109e-11       2.624175028142e-12      -9.627766077362e-15 
   78       2.748888347332e-10       5.735213040988e-14      -1.261295373093e-12       0.000000000000e+00       1.993343023917e-11       2.553884232482e-12      -9.823728284355e-15 
   79       2.783435872601e-10       5.928061881507e-14      -1.332080032582e-12       0.000000000000e+00       1.931769893805e-11       2.486611918591e-12      -1.003650202585e-14 
   80       2.818294409198e-10       6.122790483899e-14      -1.404144954528e-12       0.000000000000e+00       1.872733112086e-11       2.422222610416e-12      -1.025502002384e-14 
   81       2.853464302665e-10       6.319183007525e-14      -1.477425242991e-12       0.000000000000e+00       1.816113620689e-11       2.360528105789e-12      -1.046702023554e-14 
   82       2.888942422333e-10       6.517010779934e-14      -1.551851963642e-12       0.000000000000e+00       1.761748974579e-11       2.301285307319e-12      -1.065900801790e-14 
   83       2.924721985419e-10       6.716032035519e-14      -1.627352081368e-12       0.000000000000e+00       1.709431590188e-11       2.244194053271e-12      -1.081621829233e-14 
   84       2.960796189529e-10       6.916015341677e-14      -1.703857004831e-12       0.000000000000e+00       1.658959152469e-11       2.188967423909e-12      -1.092564190140e-14 
   85       2.997170187366e-10       7.116814911853e-14      -1.781329984332e-12       0.000000000000e+00       1.610299274186e-11       2.135560803599e-12      -1.098576400579e-14 
   86       3.033850783896e-10       7.318307356700e-14      -1.859743162660e-12       0.000000000000e+00       1.563449049139e-11       2.083976991943e-12      -1.099837824425e-14 
   87       3.070842694211e-10       7.520369241415e-14      -1.939069453018e-12       0.000000000000e+00       1.518384458495e-11       2.034196167592e-12      -1.096567954395e-14 
   88       3.108148431636e-10       7.722877222509e-14      -2.019282621298e-12       0.000000000000e+00       1.475059495825e-11       1.986174937208e-12      -1.089027778413e-14 
   89       3.145768195834e-10       7.925708184575e-14      -2.100357368331e-12       0.000000000000e+00       1.433405292146e-11       1.939845384422e-12      -1.077521145977e-14 
   90       3.183699760913e-10       8.128739377058e-14      -2.182269412159e-12       0.000000000000e+00       1.393329240968e-11       1.895114118793e-12      -1.062396134517e-14 
   91       3.221938363533e-10       8.331848551018e-14      -2.264995570291e-12       0.000000000000e+00       1.354714123329e-11       1.851861324773e-12      -1.044046415765e-14 
   92       3.260476591012e-10       8.534914095903e-14      -2.348513841968e-12       0.000000000000e+00       1.317417232845e-11       1.809939810659e-12      -1.022912622111e-14 
   93       3.299307000431e-10       8.737804381560e-14      -2.432795250949e-12       0.000000000000e+00       1.281304208716e-11       1.769211700325e-12      -9.994493930330e-15 
   94       3.338430669583e-10       8.940343653573e-14      -2.517777791810e-12       0.000000000000e+00       1.246358255947e-11       1.729666886647e-12      -9.740178771170e-15 
   95       3.377849731196e-10       9.142341237583e-14      -2.603388699031e-12       0.000000000000e+00       1.212585810586e-11       1.691320717998e-12      -9.469795133719e-15 
   96       3.417564683110e-10       9.343601865755e-14      -2.689552306895e-12       0.000000000000e+00       1.179982902213e-11       1.654177514367e-12      -9.187297938581e-15 
   97       3.457574313875e-10       9.543925665367e-14      -2.776190018653e-12       0.000000000000e+00       1.148534755421e-11       1.618230133032e-12      -8.896991589472e-15 
   98       3.497875628347e-10       9.743108147396e-14      -2.863220275679e-12       0.000000000000e+00       1.118215391282e-11       1.583459534243e-12      -8.603538925813e-15 
   99       3.538463773277e-10       9.940940195115e-14      -2.950558526635e-12       0.000000000000e+00       1.088987228821e-11       1.549834346888e-12      -8.311970175326e-15 
  100       3.579331962914e-10       1.013720805268e-13      -3.038117196629e-12       0.000000000000e+00       1.060800686492e-11       1.517310434180e-12      -8.027691906622e-15 
  101       3.620471404592e-10       1.033169331371e-13      -3.125805656374e-12       0.000000000000e+00       1.033593783647e-11       1.485830459324e-12      -7.756495981802e-15 
  102       3.661871224327e-10       1.052417290991e-13      -3.213530191351e-12       0.000000000000e+00       1.007291742009e-11       1.455323451198e-12      -7.504568509045e-15 
  103       3.703518392414e-10       1.071441909961e-13      -3.301193970968e-12       0.000000000000e+00       9.818065871479e-12       1.425704370027e-12      -7.278498795204e-15 
  104       3.745400522300e-10       1.090221031576e-13      -3.388703566850e-12       0.000000000000e+00       9.570570773299e-12       1.396893702228e-12      -7.083770430961e-15 
  105       3.787514858085e-10       1.108736540326e-13      -3.475989576954e-12       0.000000000000e+00       9.330324144280e-12       1.368880195001e-12      -6.919983123029e-15 
  106       3.829860368038e-10       1.126971400684e-13      -3.562988742947e-12       0.000000000000e+00       9.097364365255e-12       1.341665826014e-12      -6.784999086513e-15 
  107       3.872434937420e-10       1.144908623133e-13      -3.649637690496e-12       0.000000000000e+00       8.871678860378e-12       1.315246319357e-12      -6.676395639555e-15 
