# dimensionless total lensed [l(l+1)/2pi] C_l's
# for l=2 to 2500, i.e. number of multipoles equal to 2499
#
# -> if you prefer output in CAMB/HealPix/LensPix units/order, set 'format' to 'camb' in input file
# -> if you don't want to see such a header, set 'headers' to 'no' in input file
# -> for CMB lensing (phi), these are C_l^phi-phi for the lensing potential.
#    Remember the conversion factors:
#    C_l^dd (deflection) = l(l+1) C_l^phi-phi
#    C_l^gg (shear/convergence) = 1/4 (l(l+1))^2 C_l^phi-phi
#
# 1:l     2:TT                     3:EE                     4:TE                     5:BB                     6:phiphi                 7:TPhi                   8:Ephi               
    2       1.472869492699e-10       7.179166372592e-15       4.732104630546e-13       2.026363335586e-19       8.658562372633e-09       4.803717136127e-10      -2.471869467727e-12 
    3       1.389218454247e-10       1.217422829494e-14       5.964966693915e-13       4.054932908836e-19       5.354730243251e-09       3.424983450985e-10      -2.175586467574e-12 
    4       1.306533782542e-10       1.422638663412e-14       6.174847853973e-13       6.763047426136e-19       3.722966223664e-09       2.606546996819e-10      -1.736602651478e-12 
    5       1.241010346769e-10       1.316638037146e-14       5.785647826153e-13       1.015343763017e-18       2.775354208070e-09       2.067966107149e-10      -1.289754019968e-12 
    6       1.192798243286e-10       1.016675037589e-14       5.093278986440e-13       1.422934242795e-18       2.165476586544e-09       1.688554313801e-10      -8.817446229784e-13 
    7       1.158989815118e-10       6.743241967983e-15       4.298793010209e-13       1.899440278902e-18       1.746157121569e-09       1.408592719787e-10      -5.366129357866e-13 
    8       1.136494360539e-10       3.988131882662e-15       3.523354284612e-13       2.445254412568e-18       1.442897229030e-09       1.194674541763e-10      -2.651039340703e-13 
    9       1.122904770097e-10       2.308251792956e-15       2.838656171061e-13       3.060785178224e-18       1.214948197149e-09       1.026786156620e-10      -6.894089284450e-14 
   10       1.116103762007e-10       1.555821748764e-15       2.284957438119e-13       3.746444451675e-18       1.038552157122e-09       8.924927876417e-11       5.702954526828e-14 
   11       1.114735225555e-10       1.335108351455e-15       1.879260889021e-13       4.502635091664e-18       8.770649550819e-10       7.865504521874e-11       1.221908608956e-13 
   12       1.117689840370e-10       1.280309096004e-15       1.618691839592e-13       5.329739354784e-18       7.662865317840e-10       6.951741492917e-11       1.409249572398e-13 
   13       1.123831375189e-10       1.195277693853e-15       1.485741962653e-13       6.228108530058e-18       6.753505309798e-10       6.205445637811e-11       1.268151321725e-13 
   14       1.132189379530e-10       1.051808224830e-15       1.455058805095e-13       7.198054187823e-18       5.996903590101e-10       5.558331880277e-11       9.240217505547e-14 
   15       1.142817777436e-10       9.090906804029e-16       1.497611464483e-13       8.239841369877e-18       5.360057777781e-10       5.017914267654e-11       4.977583608670e-14 
   16       1.155299194933e-10       8.283271206357e-16       1.582896868291e-13       9.353683967004e-18       4.818602748788e-10       4.559683232146e-11       7.909273043800e-15 
   17       1.168891602231e-10       8.275040506034e-16       1.686045546253e-13       1.053974243919e-17       4.354135866507e-10       4.164031308054e-11      -2.693869471334e-14 
   18       1.183566389702e-10       8.798803747625e-16       1.789545884051e-13       1.179812279170e-17       3.951015222903e-10       3.813180908861e-11      -5.124207066195e-14 
   19       1.199403203058e-10       9.529739421285e-16       1.883667536409e-13       1.312888478232e-17       3.602828633268e-10       3.503911764382e-11      -6.408434521558e-14 
   20       1.215891992420e-10       1.013277263825e-15       1.960573568367e-13       1.453203410624e-17       3.296171809520e-10       3.230361725986e-11      -6.622848022381e-14 
   21       1.233144068988e-10       1.063460930583e-15       2.021029278061e-13       1.600754587490e-17       3.026228752767e-10       2.988083849373e-11      -5.977129182417e-14 
   22       1.251135730352e-10       1.121265725828e-15       2.069679645830e-13       1.755535529731e-17       2.786537975846e-10       2.769173088694e-11      -4.801832319513e-14 
   23       1.269766752900e-10       1.205828614141e-15       2.111147989123e-13       1.917538567399e-17       2.573804511446e-10       2.570757092661e-11      -3.386851251157e-14 
   24       1.288734182123e-10       1.335565514064e-15       2.150732739025e-13       2.086753903197e-17       2.383112914804e-10       2.389715183092e-11      -2.037484816662e-14 
   25       1.308200882143e-10       1.510989778854e-15       2.193096921908e-13       2.263172886125e-17       2.212220997770e-10       2.226912422086e-11      -9.381637264847e-15 
   26       1.328279574745e-10       1.725297209141e-15       2.242323665192e-13       2.446786864858e-17       2.058036325519e-10       2.082443879781e-11      -2.249216449334e-15 
   27       1.348783259482e-10       1.972157680408e-15       2.298683837068e-13       2.637590062118e-17       1.918708926987e-10       1.953043560054e-11       7.976537450621e-16 
   28       1.369361871816e-10       2.245220794180e-15       2.360566418821e-13       2.835578843102e-17       1.791836303599e-10       1.833717770935e-11       1.117731124136e-16 
   29       1.390112620228e-10       2.544052500353e-15       2.425120802830e-13       3.040755052621e-17       1.676770106000e-10       1.724053493430e-11      -3.512564788661e-15 
   30       1.411177196298e-10       2.869954186251e-15       2.488201299697e-13       3.253124133809e-17       1.572274520682e-10       1.624203196838e-11      -8.853510371942e-15 
   31       1.432594869488e-10       3.223592806759e-15       2.544833512223e-13       3.472695124868e-17       1.476217974289e-10       1.533385190631e-11      -1.447852077924e-14 
   32       1.454394996694e-10       3.602777611747e-15       2.591067857653e-13       3.699482942265e-17       1.388104190052e-10       1.450625526250e-11      -1.952769354336e-14 
   33       1.476512206769e-10       4.003746913275e-15       2.622704307401e-13       3.933507733024e-17       1.307309948781e-10       1.374101679794e-11      -2.319710743223e-14 
   34       1.498819639839e-10       4.423236524555e-15       2.635710234497e-13       4.174794292227e-17       1.232704594910e-10       1.301610998359e-11      -2.474625181834e-14 
   35       1.521380449270e-10       4.863932337302e-15       2.629526101712e-13       4.423370428387e-17       1.163906094644e-10       1.233239194054e-11      -2.426214268597e-14 
   36       1.544267863153e-10       5.330994193069e-15       2.604942711256e-13       4.679268762863e-17       1.100362356699e-10       1.169540768989e-11      -2.217283011498e-14 
   37       1.567502376222e-10       5.829749378769e-15       2.563164455808e-13       4.942525331711e-17       1.041246272246e-10       1.110782754308e-11      -1.901067134635e-14 
   38       1.591090307520e-10       6.362432647387e-15       2.505448037063e-13       5.213171870596e-17       9.864048813112e-11       1.056865546056e-11      -1.525109995938e-14 
   39       1.614985835700e-10       6.930414004762e-15       2.433400486416e-13       5.491241478717e-17       9.356639785516e-11       1.007322269615e-11      -1.143557248570e-14 
   40       1.639071957342e-10       7.535069440906e-15       2.349114148532e-13       5.776770974279e-17       8.885393981581e-11       9.612987250104e-12      -8.224241521442e-15 
   41       1.663214814161e-10       8.177556046304e-15       2.254557837524e-13       6.069797322714e-17       8.444056191643e-11       9.178241488011e-12      -6.231571101924e-15 
   42       1.687464312950e-10       8.858053572584e-15       2.149440584697e-13       6.370344981097e-17       8.031325808400e-11       8.768069376597e-12      -5.451112377669e-15 
   43       1.711907353610e-10       9.576272993342e-15       2.032702424689e-13       6.678434813302e-17       7.646106697587e-11       8.383088521272e-12      -5.655873851879e-15 
   44       1.736609771130e-10       1.033164150937e-14       1.903078939758e-13       6.994087496615e-17       7.285596360142e-11       8.022588472844e-12      -6.549552675258e-15 
   45       1.761614084120e-10       1.112353220812e-14       1.759201331885e-13       7.317320040956e-17       6.946286452367e-11       7.684976306899e-12      -7.806223095235e-15 
   46       1.786938092077e-10       1.195207525447e-14       1.599966038693e-13       7.648134194304e-17       6.627641103537e-11       7.369540382519e-12      -9.214067423308e-15 
   47       1.812571416240e-10       1.281756009654e-14       1.424251275010e-13       7.986524506949e-17       6.329287231229e-11       7.075020300617e-12      -1.056702367402e-14 
   48       1.838472579354e-10       1.372020691284e-14       1.230804720378e-13       8.332481243912e-17       6.049905115236e-11       6.799013835869e-12      -1.162249465515e-14 
   49       1.864566414763e-10       1.466016370695e-14       1.018235795752e-13       8.685990149030e-17       5.787158018410e-11       6.537895352497e-12      -1.209942794474e-14 
   50       1.890775164220e-10       1.563754008403e-14       7.853881495839e-14       9.047031837428e-17       5.538395462002e-11       6.287865221361e-12      -1.176695196433e-14 
   51       1.917127733481e-10       1.665252612923e-14       5.325942296822e-14       9.415580325880e-17       5.303151379408e-11       6.048623160100e-12      -1.074310219522e-14 
   52       1.943675614371e-10       1.770530077545e-14       2.607479005010e-14       9.791603695733e-17       5.081202403331e-11       5.820550956330e-12      -9.273861939428e-15 
   53       1.970460806351e-10       1.879599679055e-14      -2.903607520410e-15       1.017506418224e-16       4.871820311398e-11       5.603640924642e-12      -7.651979078395e-15 
   54       1.997514810963e-10       1.992469959825e-14      -3.354118674713e-14       1.056591792118e-16       4.673738054274e-11       5.397467545979e-12      -6.219307513404e-15 
   55       2.024859492300e-10       2.109144650993e-14      -6.571231158759e-14       1.096411977222e-16       4.485535972042e-11       5.201401101924e-12      -5.286699699035e-15 
   56       2.052512212374e-10       2.229622689788e-14      -9.940810828450e-14       1.136963977290e-16       4.306990623697e-11       5.015375697341e-12      -4.865016226204e-15 
   57       2.080480210173e-10       2.353897999971e-14      -1.346536525139e-13       1.178245032835e-16       4.138001531429e-11       4.839262355192e-12      -4.871394461574e-15 
   58       2.108757934872e-10       2.481959337344e-14      -1.714775111022e-13       1.220252143815e-16       3.978183132039e-11       4.672625217578e-12      -5.204990930415e-15 
   59       2.137326112975e-10       2.613790173434e-14      -2.099120135999e-13       1.262982064075e-16       3.826847176026e-11       4.514702613493e-12      -5.746110461918e-15 
   60       2.166150815468e-10       2.749368579180e-14      -2.499935238541e-13       1.306431295787e-16       3.682985126667e-11       4.364388126574e-12      -6.355335334507e-15 
   61       2.195197966930e-10       2.888664503082e-14      -2.917565684887e-13       1.350596821287e-16       3.545547959691e-11       4.220531157516e-12      -6.902561372502e-15 
   62       2.224482788924e-10       3.031631154840e-14      -3.352140678938e-13       1.395478503142e-16       3.414398770809e-11       4.082960277690e-12      -7.363692391721e-15 
   63       2.254029849852e-10       3.178211472479e-14      -3.803731295864e-13       1.441077215389e-16       3.289543731134e-11       3.951657027989e-12      -7.744203287930e-15 
   64       2.283858168195e-10       3.328340362187e-14      -4.272408748816e-13       1.487394171154e-16       3.170845551845e-11       3.826448072839e-12      -8.051224821083e-15 
   65       2.313980769620e-10       3.481944499329e-14      -4.758245155502e-13       1.534430940487e-16       3.058015319566e-11       3.706996405275e-12      -8.293621685587e-15 
   66       2.344404244093e-10       3.638942129466e-14      -5.261314304755e-13       1.582189468202e-16       2.950604331746e-11       3.592792552014e-12      -8.482070580567e-15 
   67       2.375128302991e-10       3.799242869366e-14      -5.781692423117e-13       1.630672091708e-16       2.847995932041e-11       3.483145778532e-12      -8.629138280131e-15 
   68       2.406150423504e-10       3.962754940780e-14      -6.319405570733e-13       1.679881462698e-16       2.749570022292e-11       3.377377128657e-12      -8.747461853720e-15 
   69       2.437481864646e-10       4.129409018610e-14      -6.874257738109e-13       1.729820253899e-16       2.655253557493e-11       3.275463623696e-12      -8.843686633717e-15 
   70       2.469134115797e-10       4.299138879743e-14      -7.445969134301e-13       1.780491424669e-16       2.565067440826e-11       3.177509395173e-12      -8.923434525576e-15 
   71       2.501113789374e-10       4.471874389127e-14      -8.034225887981e-13       1.831898326997e-16       2.478960035362e-11       3.083551831906e-12      -8.993122178326e-15 
   72       2.533422308056e-10       4.647541490881e-14      -8.638679449036e-13       1.884044720872e-16       2.396803415718e-11       2.993557947087e-12      -9.059990516473e-15 
   73       2.566055592000e-10       4.826062199409e-14      -9.258945990158e-13       1.936934789670e-16       2.318389619723e-11       2.907420745371e-12      -9.132134271910e-15 
   74       2.599003746066e-10       5.007354590511e-14      -9.894605808446e-13       1.990573155523e-16       2.243426900077e-11       2.824955589953e-12      -9.218531515815e-15 
   75       2.632250747035e-10       5.191332792493e-14      -1.054520272700e-12       2.044964894702e-16       2.171535976013e-11       2.745896569651e-12      -9.329073190558e-15 
   76       2.665780936632e-10       5.377894971155e-14      -1.121025519189e-12       2.100114640529e-16       2.102344068031e-11       2.669965803538e-12      -9.471591519586e-15 
   77       2.699600558957e-10       5.566884774911e-14      -1.188929322213e-12       2.156023669280e-16       2.035795084669e-11       2.597103975936e-12      -9.642254358123e-15 
   78       2.733719600497e-10       5.758122810187e-14      -1.258182714181e-12       2.212692308351e-16       1.971889452608e-11       2.527275435623e-12      -9.833464721388e-15 
   79       2.768145162327e-10       5.951417772877e-14      -1.328733612973e-12       2.270120798296e-16       1.910589636609e-11       2.460396885053e-12      -1.003667502131e-14 
   80       2.802881286889e-10       6.146566193253e-14      -1.400526786082e-12       2.328309289497e-16       1.851818396292e-11       2.396335243080e-12      -1.024235505799e-14 
   81       2.837928784775e-10       6.343352180887e-14      -1.473503814751e-12       2.387257838829e-16       1.795457042922e-11       2.334905507684e-12      -1.043996001119e-14 
   82       2.873285061498e-10       6.541547169567e-14      -1.547603058120e-12       2.446966406322e-16       1.741343696191e-11       2.275868618696e-12      -1.061789843176e-14 
   83       2.908943944280e-10       6.740909662213e-14      -1.622759617367e-12       2.507434851834e-16       1.689271541001e-11       2.218929320526e-12      -1.076350023313e-14 
   84       2.944899173851e-10       6.941208670501e-14      -1.698912407490e-12       2.568663062862e-16       1.639039012086e-11       2.163806642848e-12      -1.086556891110e-14 
   85       2.981155924408e-10       7.142299057199e-14      -1.776026798213e-12       2.630651369630e-16       1.590613725329e-11       2.110463449204e-12      -1.092259445414e-14 
   86       3.017720884708e-10       7.344058274383e-14      -1.854075678170e-12       2.693400193024e-16       1.543992653042e-11       2.058911201042e-12      -1.093584960403e-14 
   87       3.054598652870e-10       7.546363920285e-14      -1.933032763350e-12       2.756909918448e-16       1.499151754758e-11       2.009139819928e-12      -1.090693793822e-14 
   88       3.091791624743e-10       7.749093882442e-14      -2.012872680690e-12       2.821180894694e-16       1.456045106757e-11       1.961116770742e-12      -1.083780529375e-14 
   89       3.129299882291e-10       7.952126480841e-14      -2.093571051680e-12       2.886213432813e-16       1.414604031579e-11       1.914786144873e-12      -1.073075119111e-14 
   90       3.167121081963e-10       8.155340611064e-14      -2.175104575956e-12       2.952007804988e-16       1.374736227550e-11       1.870067743415e-12      -1.058844025813e-14 
   91       3.205250343072e-10       8.358615887440e-14      -2.257451114898e-12       3.018564243401e-16       1.336324898296e-11       1.826856160364e-12      -1.041391365382e-14 
   92       3.243680136171e-10       8.561832786189e-14      -2.340589775233e-12       3.085882939104e-16       1.299227882268e-11       1.785019865813e-12      -1.021060049228e-14 
   93       3.282402916804e-10       8.764861434137e-14      -2.424492395438e-12       3.153965124690e-16       1.263311328322e-11       1.744434040719e-12      -9.982195501808e-15 
   94       3.321419722324e-10       8.967525735112e-14      -2.509096358690e-12       3.222816511009e-16       1.228558406844e-11       1.705086721539e-12      -9.732246141121e-15 
   95       3.360732667675e-10       9.169634087716e-14      -2.594327826523e-12       3.292444367652e-16       1.194975415433e-11       1.666986998955e-12      -9.464524218054e-15 
   96       3.400342242271e-10       9.370990246476e-14      -2.680109937730e-12       3.362856498770e-16       1.162558298710e-11       1.630132241321e-12      -9.183163580499e-15 
   97       3.440247236058e-10       9.571393309124e-14      -2.766362773953e-12       3.434061256822e-16       1.131292252042e-11       1.594507641159e-12      -8.892669704116e-15 
   98       3.480444665581e-10       9.770637703894e-14      -2.853003325263e-12       3.506067556321e-16       1.101151325270e-11       1.560085761658e-12      -8.597929280043e-15 
   99       3.520929700037e-10       9.968513176798e-14      -2.939945455750e-12       3.578884887587e-16       1.072098026441e-11       1.526826083171e-12      -8.304219802601e-15 
  100       3.561695587345e-10       1.016480477892e-13      -3.027099869107e-12       3.652523330489e-16       1.044082925529e-11       1.494674549715e-12      -8.017219157004e-15 
  101       3.602733580201e-10       1.035929285371e-13      -3.114374074219e-12       3.726993568194e-16       1.017044258171e-11       1.463563115467e-12      -7.743015207064e-15 
  102       3.644032862145e-10       1.055175302423e-13      -3.201672350744e-12       3.802306900919e-16       9.909075293869e-12       1.433409291264e-12      -7.488115382902e-15 
  103       3.685580473619e-10       1.074195618052e-13      -3.288895714703e-12       3.878475259672e-16       9.655851173131e-12       1.404115691100e-12      -7.259456268653e-15 
  104       3.727364083349e-10       1.092967961745e-13      -3.375948847394e-12       3.955510012765e-16       9.409961020536e-12       1.375592362858e-12      -7.062821568119e-15 
  105       3.769380888108e-10       1.111474218959e-13      -3.462762022251e-12       4.033418172108e-16       9.171296563431e-12       1.347828192770e-12      -6.897831961372e-15 
  106       3.811629782935e-10       1.129697390365e-13      -3.549272089617e-12       4.112205697686e-16       8.939895191383e-12       1.320828346106e-12      -6.762293174345e-15 
  107       3.854108581018e-10       1.147620530045e-13      -3.635415819511e-12       4.191878659504e-16       8.715743632511e-12       1.294592143610e-12      -6.653719356527e-15 
