# dimensionless total [l(l+1)/2pi] C_l's
# for l=2 to 3000, i.e. number of multipoles equal to 2999
#
# -> if you prefer output in CAMB/HealPix/LensPix units/order, set 'format' to 'camb' in input file
# -> if you don't want to see such a header, set 'headers' to 'no' in input file
# -> for CMB lensing (phi), these are C_l^phi-phi for the lensing potential.
#    Remember the conversion factors:
#    C_l^dd (deflection) = l(l+1) C_l^phi-phi
#    C_l^gg (shear/convergence) = 1/4 (l(l+1))^2 C_l^phi-phi
#
# 1:l     2:TT                     3:EE                     4:TE                     5:BB                     6:phiphi                 7:TPhi                   8:Ephi               
    2       1.494363458591e-10       7.260983187470e-15       4.802510464244e-13       0.000000000000e+00       8.688473288127e-09       4.835811595711e-10      -2.505290111314e-12 
    3       1.408481265665e-10       1.229784559541e-14       6.045280294000e-13       0.000000000000e+00       5.383570405737e-09       3.445681511763e-10      -2.201980518155e-12 
    4       1.323886542985e-10       1.435854647518e-14       6.250557622462e-13       0.000000000000e+00       3.745173832719e-09       2.620160850341e-10      -1.756097020535e-12 
    5       1.256874161419e-10       1.328069543042e-14       5.850960811196e-13       0.000000000000e+00       2.792921349189e-09       2.077395452475e-10      -1.303323718025e-12 
    6       1.207524133568e-10       1.024993956303e-14       5.146617257820e-13       0.000000000000e+00       2.178416255643e-09       1.695182912394e-10      -8.904390366730e-13 
    7       1.172775799804e-10       6.795179422092e-15       4.341079165969e-13       0.000000000000e+00       1.755547831728e-09       1.413188502629e-10      -5.414783991812e-13 
    8       1.149567438490e-10       4.016747698486e-15       3.556309692194e-13       0.000000000000e+00       1.450327753870e-09       1.197896536642e-10      -2.671113509254e-13 
    9       1.135427544448e-10       2.323759010018e-15       2.864265603643e-13       0.000000000000e+00       1.221133483640e-09       1.029189016087e-10      -6.894597910687e-14 
   10       1.128179086246e-10       1.566363271692e-15       2.305352510005e-13       0.000000000000e+00       1.043612169370e-09       8.943656135916e-11       5.830945532785e-14 
   11       1.126483113692e-10       1.344829735286e-15       1.895939907780e-13       0.000000000000e+00       8.786261827511e-10       7.876465839463e-11       1.241826615610e-13 
   12       1.129109333513e-10       1.289686367698e-15       1.632623021471e-13       0.000000000000e+00       7.674294582290e-10       6.957828515075e-11       1.431684596257e-13 
   13       1.135012006400e-10       1.202672618124e-15       1.498096652359e-13       0.000000000000e+00       6.761787927463e-10       6.209358408075e-11       1.289931791227e-13 
   14       1.143201432375e-10       1.055232607635e-15       1.466442993897e-13       0.000000000000e+00       6.002801925681e-10       5.560457263978e-11       9.423577145898e-14 
   15       1.153713815219e-10       9.075314993783e-16       1.507819928468e-13       0.000000000000e+00       5.364129107585e-10       5.018961108358e-11       5.113184138772e-14 
   16       1.166028408014e-10       8.219632914625e-16       1.592673581771e-13       0.000000000000e+00       4.821267004508e-10       4.559072093674e-11       8.790448360259e-15 
   17       1.179562608273e-10       8.171762168421e-16       1.695672262203e-13       0.000000000000e+00       4.355713016069e-10       4.161653262437e-11      -2.643209762969e-14 
   18       1.194165137822e-10       8.667098122100e-16       1.798437618894e-13       0.000000000000e+00       3.951739328094e-10       3.810474963238e-11      -5.099347020732e-14 
   19       1.209917056425e-10       9.377939336628e-16       1.891485503884e-13       0.000000000000e+00       3.602917009344e-10       3.501811530442e-11      -6.401204902014e-14 
   20       1.226376377745e-10       9.963208552366e-16       1.967565798871e-13       0.000000000000e+00       3.295763389576e-10       3.228508015066e-11      -6.630143021108e-14 
   21       1.243636316328e-10       1.044494882838e-15       2.027364470714e-13       0.000000000000e+00       3.025436163236e-10       2.985944270387e-11      -5.994980508605e-14 
   22       1.261626511178e-10       1.099643215049e-15       2.075222414453e-13       0.000000000000e+00       2.785454966080e-10       2.766492375934e-11      -4.823917014977e-14 
   23       1.280264520533e-10       1.180922485391e-15       2.115744422244e-13       0.000000000000e+00       2.572508690175e-10       2.567716537938e-11      -3.407765147439e-14 
   24       1.299278359461e-10       1.306983497595e-15       2.154311107117e-13       0.000000000000e+00       2.381661994202e-10       2.386901822324e-11      -2.053823602810e-14 
   25       1.318811391719e-10       1.478746958866e-15       2.195662936850e-13       0.000000000000e+00       2.210662384236e-10       2.224560104818e-11      -9.462068296296e-15 
   26       1.338942774263e-10       1.689772308505e-15       2.243997425343e-13       0.000000000000e+00       2.056407648139e-10       2.080234838837e-11      -2.206325055192e-15 
   27       1.359495732782e-10       1.933324181617e-15       2.299836855548e-13       0.000000000000e+00       1.917040822834e-10       1.950740611217e-11       9.712744266554e-16 
   28       1.380141874024e-10       2.202444705272e-15       2.361785691905e-13       0.000000000000e+00       1.790152268674e-10       1.831358167237e-11       3.809179310532e-16 
   29       1.400981223834e-10       2.496690103807e-15       2.426702417898e-13       0.000000000000e+00       1.675090009089e-10       1.721749319551e-11      -3.189693087351e-15 
   30       1.422150116933e-10       2.817578424058e-15       2.489895805245e-13       0.000000000000e+00       1.570614595187e-10       1.622082758236e-11      -8.512187750874e-15 
   31       1.443681011324e-10       3.166015188779e-15       2.545903375296e-13       0.000000000000e+00       1.474590115020e-10       1.531576753384e-11      -1.414625526645e-14 
   32       1.465603479494e-10       3.539886628785e-15       2.591088320890e-13       0.000000000000e+00       1.386518092647e-10       1.449184167725e-11      -1.923163570838e-14 
   33       1.487853788261e-10       3.935463400638e-15       2.621911821296e-13       0.000000000000e+00       1.305773384718e-10       1.372968989393e-11      -2.296585116203e-14 
   34       1.510305044772e-10       4.349489394519e-15       2.634955368455e-13       0.000000000000e+00       1.231223216241e-10       1.300626357329e-11      -2.460565356668e-14 
   35       1.533015978760e-10       4.784540433970e-15       2.629476518556e-13       0.000000000000e+00       1.162484264338e-10       1.232286052697e-11      -2.421833494479e-14 
   36       1.556052476487e-10       5.245605823892e-15       2.605767584909e-13       0.000000000000e+00       1.099003296799e-10       1.168606679407e-11      -2.220300590017e-14 
   37       1.579428457846e-10       5.737857769430e-15       2.564528248807e-13       0.000000000000e+00       1.039952063721e-10       1.109955686681e-11      -1.906540067787e-14 
   38       1.603155284962e-10       6.263576179110e-15       2.506918918097e-13       0.000000000000e+00       9.851768876194e-11       1.056227164218e-11      -1.528608057450e-14 
   39       1.627196502385e-10       6.824253307425e-15       2.434577312982e-13       0.000000000000e+00       9.345029941906e-11       1.006910527371e-11      -1.142377108759e-14 
   40       1.651445987581e-10       7.421417488351e-15       2.349644145266e-13       0.000000000000e+00       8.874456949892e-11       9.610971603941e-12      -8.160553451895e-15 
   41       1.675778887800e-10       8.056346923315e-15       2.254170307681e-13       0.000000000000e+00       8.433790067648e-11       9.177663701015e-12      -6.132369449743e-15 
   42       1.700240562192e-10       8.729098654721e-15       2.148031748625e-13       0.000000000000e+00       8.021724932575e-11       8.768342923010e-12      -5.335718281367e-15 
   43       1.724907811753e-10       9.439163724202e-15       2.030388050211e-13       0.000000000000e+00       7.637162492844e-11       8.383910634360e-12      -5.540742843651e-15 
   44       1.749833797581e-10       1.018570704981e-14       1.900236045876e-13       0.000000000000e+00       7.277298214781e-11       8.024006574652e-12      -6.447312943239e-15 
   45       1.775049320837e-10       1.096787799137e-14       1.756425252031e-13       0.000000000000e+00       6.938622317773e-11       7.687359031808e-12      -7.724986237193e-15 
   46       1.800573658006e-10       1.178589881175e-14       1.597737875733e-13       0.000000000000e+00       6.620596917678e-11       7.373218916263e-12      -9.157802333981e-15 
   47       1.826402244723e-10       1.264026838376e-14       1.422812361941e-13       0.000000000000e+00       6.322847321752e-11       7.080167664858e-12      -1.053507792888e-14 
   48       1.852500426705e-10       1.353145981949e-14       1.230107943092e-13       0.000000000000e+00       6.044053017742e-11       6.805613364076e-12      -1.160876540622e-14 
   49       1.878800918361e-10       1.445991994111e-14       1.017894245657e-13       0.000000000000e+00       5.781877364977e-11       6.545707451748e-12      -1.209148911585e-14 
   50       1.905232795746e-10       1.542602773979e-14       7.847186320525e-14       0.000000000000e+00       5.533670399346e-11       6.296455075971e-12      -1.174709382392e-14 
   51       1.931823649146e-10       1.642995768688e-14       5.309818885985e-14       0.000000000000e+00       5.298965262511e-11       6.057594738750e-12      -1.069582140826e-14 
   52       1.958620765720e-10       1.747177840537e-14       2.577722745342e-14       0.000000000000e+00       5.077537866918e-11       5.829627751564e-12      -9.188576510684e-15 
   53       1.985660986290e-10       1.855148803815e-14      -3.356303038002e-15       0.000000000000e+00       4.868659884846e-11       5.612690135942e-12      -7.523987451422e-15 
   54       2.012969647930e-10       1.966901178888e-14      -3.414058376460e-14       0.000000000000e+00       4.671064821325e-11       5.406525497278e-12      -6.050796019657e-15 
   55       2.040563001556e-10       2.082424107838e-14      -6.642512636247e-14       0.000000000000e+00       4.483333830558e-11       5.210658254788e-12      -5.086379915800e-15 
   56       2.068458590440e-10       2.201716803848e-14      -1.002000163652e-13       0.000000000000e+00       4.305243126560e-11       5.025025869194e-12      -4.643142723241e-15 
   57       2.096665597797e-10       2.324778012191e-14      -1.354966592842e-13       0.000000000000e+00       4.136691872301e-11       4.849456160322e-12      -4.638339237510e-15 
   58       2.125180695699e-10       2.451602059450e-14      -1.723512817295e-13       0.000000000000e+00       3.977294571879e-11       4.683461811906e-12      -4.971128980489e-15 
   59       2.153987123057e-10       2.582178769735e-14      -2.108052670106e-13       0.000000000000e+00       3.826363497084e-11       4.526221051481e-12      -5.521698431924e-15 
   60       2.183053763588e-10       2.716493380910e-14      -2.509054907375e-13       0.000000000000e+00       3.682891113958e-11       4.376558330286e-12      -6.150383260940e-15 
   61       2.212348949273e-10       2.854520973480e-14      -2.926954863820e-13       0.000000000000e+00       3.545829510470e-11       4.233260128491e-12      -6.726420628749e-15 
   62       2.241887577207e-10       2.996208485497e-14      -3.361858655039e-13       0.000000000000e+00       3.415041728368e-11       4.096148912836e-12      -7.223733455721e-15 
   63       2.271692980605e-10       3.141488493670e-14      -3.813778233402e-13       0.000000000000e+00       3.290533755393e-11       3.965217053514e-12      -7.645186190605e-15 
   64       2.301782690772e-10       3.290284091696e-14      -4.282717667219e-13       0.000000000000e+00       3.172168378649e-11       3.840304455770e-12      -7.994913059093e-15 
   65       2.332167982295e-10       3.442508632365e-14      -4.768673587163e-13       0.000000000000e+00       3.059657034788e-11       3.721089873072e-12      -8.278380435093e-15 
   66       2.362853418251e-10       3.598065469682e-14      -5.271635632691e-13       0.000000000000e+00       2.952551660191e-11       3.607082220282e-12      -8.502449211986e-15 
   67       2.393836395406e-10       3.756847700976e-14      -5.791586898478e-13       0.000000000000e+00       2.850236541146e-11       3.497611886825e-12      -8.675437173900e-15 
   68       2.425112323646e-10       3.918750983917e-14      -6.328480002090e-13       0.000000000000e+00       2.752092548335e-11       3.392019356387e-12      -8.806380804180e-15 
   69       2.456692399561e-10       4.083715579790e-14      -6.882158658002e-13       0.000000000000e+00       2.658046700920e-11       3.290284864734e-12      -8.902507600579e-15 
   70       2.488588633788e-10       4.251692405155e-14      -7.452420941381e-13       0.000000000000e+00       2.568119829562e-11       3.192511307953e-12      -8.971361277749e-15 
   71       2.520808230297e-10       4.422630785853e-14      -8.039042086885e-13       0.000000000000e+00       2.482260370922e-11       3.098734649255e-12      -9.021598158349e-15 
   72       2.553353275689e-10       4.596478533509e-14      -8.641774311593e-13       0.000000000000e+00       2.400340626654e-11       3.008920278348e-12      -9.063029069561e-15 
   73       2.586220428502e-10       4.773182022043e-14      -9.260346637935e-13       0.000000000000e+00       2.322153022388e-11       2.922959370810e-12      -9.106661239606e-15 
   74       2.619400608501e-10       4.952686264183e-14      -9.894464716616e-13       0.000000000000e+00       2.247406366717e-11       2.840665247462e-12      -9.164740194258e-15 
   75       2.652878685986e-10       5.134934987969e-14      -1.054381064955e-12       0.000000000000e+00       2.175722110190e-11       2.761769733740e-12      -9.250791653352e-15 
   76       2.686639779589e-10       5.319852754672e-14      -1.120802572226e-12       0.000000000000e+00       2.106728201568e-11       2.685992647594e-12      -9.375830597648e-15 
   77       2.720690162351e-10       5.507287378758e-14      -1.188665535725e-12       0.000000000000e+00       2.040368685424e-11       2.613272939915e-12      -9.536097764853e-15 
   78       2.755039621204e-10       5.697057098142e-14      -1.257919375429e-12       0.000000000000e+00       1.976644026792e-11       2.543573285224e-12      -9.723152572104e-15 
   79       2.789695014317e-10       5.888967314266e-14      -1.328509957140e-12       0.000000000000e+00       1.915516810829e-11       2.476808585971e-12      -9.927471448749e-15 
   80       2.824660095908e-10       6.082810300349e-14      -1.400379539736e-12       0.000000000000e+00       1.856910003115e-11       2.412843831464e-12      -1.013841113759e-14 
   81       2.859935341058e-10       6.278364909648e-14      -1.473466722417e-12       0.000000000000e+00       1.800705209949e-11       2.351491956805e-12      -1.034417199612e-14 
   82       2.895517770521e-10       6.475396283703e-14      -1.547706391948e-12       0.000000000000e+00       1.746740938650e-11       2.292511701823e-12      -1.053176129774e-14 
   83       2.931400775536e-10       6.673655560598e-14      -1.623029669915e-12       0.000000000000e+00       1.694810857855e-11       2.235605470002e-12      -1.068695653304e-14 
   84       2.967577690225e-10       6.872904646009e-14      -1.699371473038e-12       0.000000000000e+00       1.644713876866e-11       2.180490654875e-12      -1.079718237772e-14 
   85       3.004053572981e-10       7.072995883701e-14      -1.776694749752e-12       0.000000000000e+00       1.596417733389e-11       2.127131895116e-12      -1.086076997822e-14 
   86       3.040835066067e-10       7.273805119220e-14      -1.854970183502e-12       0.000000000000e+00       1.549919461612e-11       2.075543575901e-12      -1.087917251110e-14 
   87       3.077926711132e-10       7.475207938979e-14      -1.934169010997e-12       0.000000000000e+00       1.505195128391e-11       2.025718891841e-12      -1.085420008432e-14 
   88       3.115330837013e-10       7.677079799737e-14      -2.014263097408e-12       0.000000000000e+00       1.462198964464e-11       1.977628940666e-12      -1.078803200764e-14 
   89       3.153047447527e-10       7.879296158077e-14      -2.095225011567e-12       0.000000000000e+00       1.420862495651e-11       1.931221816901e-12      -1.068322906311e-14 
   90       3.191074109271e-10       8.081732599881e-14      -2.177028101165e-12       0.000000000000e+00       1.381093674067e-11       1.886421705548e-12      -1.054274577542e-14 
   91       3.229405839414e-10       8.284264969811e-14      -2.259646567949e-12       0.000000000000e+00       1.342776009324e-11       1.843127975765e-12      -1.036994268240e-14 
   92       3.268034993500e-10       8.486769500784e-14      -2.343055542923e-12       0.000000000000e+00       1.305767699745e-11       1.801214274545e-12      -1.016859860536e-14 
   93       3.306953934597e-10       8.689113036662e-14      -2.427223649198e-12       0.000000000000e+00       1.269935237059e-11       1.760560255318e-12      -9.942708395526e-15 
   94       3.346163743681e-10       8.891121736957e-14      -2.512089247715e-12       0.000000000000e+00       1.235261889015e-11       1.721154190993e-12      -9.695814724789e-15 
   95       3.385666617941e-10       9.092607882804e-14      -2.597580741294e-12       0.000000000000e+00       1.201754002173e-11       1.683004190041e-12      -9.431598015374e-15 
   96       3.425463133113e-10       9.293379357933e-14      -2.683623741089e-12       0.000000000000e+00       1.169407591895e-11       1.646106484478e-12      -9.154091210000e-15 
   97       3.465552169457e-10       9.493239642167e-14      -2.770141038675e-12       0.000000000000e+00       1.138207946767e-11       1.610444971524e-12      -8.867689097573e-15 
   98       3.505930837732e-10       9.691987804903e-14      -2.857052578121e-12       0.000000000000e+00       1.108129233021e-11       1.575990755254e-12      -8.577157638871e-15 
   99       3.546594405174e-10       9.889418498604e-14      -2.944275428068e-12       0.000000000000e+00       1.079134098947e-11       1.542701688251e-12      -8.287643292238e-15 
  100       3.587536221471e-10       1.008532195229e-13      -3.031723753805e-12       0.000000000000e+00       1.051173279321e-11       1.510521913263e-12      -8.004682339268e-15 
  101       3.628747644737e-10       1.027948396502e-13      -3.119308789351e-12       0.000000000000e+00       1.024185199818e-11       1.479381404855e-12      -7.734210210500e-15 
  102       3.670217967489e-10       1.047168589938e-13      -3.206938809526e-12       0.000000000000e+00       9.980955814327e-12       1.449195511061e-12      -7.482570811104e-15 
  103       3.711934342624e-10       1.066170467500e-13      -3.294519102035e-12       0.000000000000e+00       9.728170449022e-12       1.419864495043e-12      -7.256525846569e-15 
  104       3.753884548106e-10       1.084932289315e-13      -3.381958127609e-12       0.000000000000e+00       9.482688975564e-12       1.391296398129e-12      -7.061714697132e-15 
  105       3.796065865809e-10       1.103436078235e-13      -3.469187008295e-12       0.000000000000e+00       9.244403900370e-12       1.363480133539e-12      -6.897777012549e-15 
  106       3.838477269656e-10       1.121664857612e-13      -3.556142631953e-12       0.000000000000e+00       9.013353069446e-12       1.336421458037e-12      -6.762585569504e-15 
  107       3.881116651703e-10       1.139601687076e-13      -3.642761738867e-12       0.000000000000e+00       8.789523757668e-12       1.310120332634e-12      -6.653729278694e-15 
