# dimensionless total [l(l+1)/2pi] C_l's
# for l=2 to 3000, i.e. number of multipoles equal to 2999
#
# -> if you prefer output in CAMB/HealPix/LensPix units/order, set 'format' to 'camb' in input file
# -> if you don't want to see such a header, set 'headers' to 'no' in input file
# -> for CMB lensing (phi), these are C_l^phi-phi for the lensing potential.
#    Remember the conversion factors:
#    C_l^dd (deflection) = l(l+1) C_l^phi-phi
#    C_l^gg (shear/convergence) = 1/4 (l(l+1))^2 C_l^phi-phi
#
# 1:l     2:TT                     3:EE                     4:TE                     5:BB                     6:phiphi                 7:TPhi                   8:Ephi               
    2       1.494416512767e-10       7.262121405178e-15       4.803229554595e-13       0.000000000000e+00       8.637702286881e-09       4.830171039161e-10      -2.505491765057e-12 
    3       1.408521470028e-10       1.229998124700e-14       6.046565504684e-13       0.000000000000e+00       5.332857893553e-09       3.438535020902e-10      -2.202198306962e-12 
    4       1.323945037218e-10       1.436115294021e-14       6.252324814011e-13       0.000000000000e+00       3.700601838449e-09       2.612477696059e-10      -1.756296160787e-12 
    5       1.256981775814e-10       1.328324108838e-14       5.853090213702e-13       0.000000000000e+00       2.754308629046e-09       2.069432358905e-10      -1.303490481876e-12 
    6       1.207711934602e-10       1.025216172616e-14       5.148985156427e-13       0.000000000000e+00       2.144470421351e-09       1.687023937199e-10      -8.905709021294e-13 
    7       1.173071433614e-10       6.797076457025e-15       4.343589915415e-13       0.000000000000e+00       1.725229069114e-09       1.404906400997e-10      -5.415807527008e-13 
    8       1.150000781581e-10       4.018414126374e-15       3.558903552554e-13       0.000000000000e+00       1.422961698941e-09       1.189559689749e-10      -2.671945257594e-13 
    9       1.136023418490e-10       2.325245535265e-15       2.866930666864e-13       0.000000000000e+00       1.196261171916e-09       1.020853339683e-10      -6.902230982665e-14 
   10       1.128958433805e-10       1.567651156443e-15       2.308133808579e-13       0.000000000000e+00       1.020863951190e-09       8.860756664653e-11       5.822827050854e-14 
   11       1.127467780019e-10       1.345902351900e-15       1.898917714750e-13       0.000000000000e+00       8.633330503458e-10       7.808952510099e-11       1.240894966747e-13 
   12       1.130315830747e-10       1.290617870070e-15       1.635891877745e-13       0.000000000000e+00       7.533244113205e-10       6.890993430889e-11       1.430550212130e-13 
   13       1.136456602901e-10       1.203657913908e-15       1.501758076291e-13       0.000000000000e+00       6.630909006610e-10       6.143384391686e-11       1.288596129876e-13 
   14       1.144899249685e-10       1.056538842128e-15       1.470593673892e-13       0.000000000000e+00       5.880735818504e-10       5.495457065446e-11       9.408400841050e-14 
   15       1.155677899504e-10       9.094076455200e-16       1.512545831697e-13       0.000000000000e+00       5.249777352452e-10       4.954996651679e-11       5.096885261544e-14 
   16       1.168268715414e-10       8.245645233204e-16       1.598047366187e-13       0.000000000000e+00       4.713728504358e-10       4.496171567350e-11       8.625952784279e-15 
   17       1.182089717008e-10       8.205466725056e-16       1.701743494179e-13       0.000000000000e+00       4.254239625032e-10       4.099800507752e-11      -2.658762348401e-14 
   18       1.196986668802e-10       8.708228682810e-16       1.805246562270e-13       0.000000000000e+00       3.855739500410e-10       3.749674601555e-11      -5.113052152505e-14 
   19       1.213039701146e-10       9.426414239565e-16       1.899061291943e-13       0.000000000000e+00       3.511784630122e-10       3.442057820517e-11      -6.412321302989e-14 
   20       1.229807259369e-10       1.001956897002e-15       1.975923634283e-13       0.000000000000e+00       3.209076860363e-10       3.169835307777e-11      -6.638245355737e-14 
   21       1.247381529950e-10       1.051056881031e-15       2.036515245317e-13       0.000000000000e+00       2.942806959054e-10       2.928360034837e-11      -5.999986215282e-14 
   22       1.265690841878e-10       1.107358971482e-15       2.085176190826e-13       0.000000000000e+00       2.706545860916e-10       2.709977785977e-11      -4.826130593239e-14 
   23       1.284652196118e-10       1.190040385434e-15       2.126508277003e-13       0.000000000000e+00       2.497007191557e-10       2.512245652212e-11      -3.407789330616e-14 
   24       1.303993467578e-10       1.317741833421e-15       2.165889477924e-13       0.000000000000e+00       2.309314054526e-10       2.332465975810e-11      -2.052510064562e-14 
   25       1.323857780468e-10       1.491358266163e-15       2.208061492284e-13       0.000000000000e+00       2.141231077328e-10       2.171162142757e-11      -9.444793327538e-15 
   26       1.344323961708e-10       1.704418452286e-15       2.257223606790e-13       0.000000000000e+00       1.989689002336e-10       2.027894813002e-11      -2.193747971490e-15 
   27       1.365213992212e-10       1.950191718596e-15       2.313892292370e-13       0.000000000000e+00       1.852848062828e-10       1.899461490861e-11       9.720805506525e-16 
   28       1.386198165363e-10       2.221736802014e-15       2.376663247838e-13       0.000000000000e+00       1.728327794821e-10       1.781122552587e-11       3.654875922103e-16 
   29       1.407376484368e-10       2.518627050641e-15       2.442386510838e-13       0.000000000000e+00       1.615477089302e-10       1.672526954532e-11      -3.223558023180e-15 
   30       1.428885922126e-10       2.842399405487e-15       2.506361744916e-13       0.000000000000e+00       1.513069455773e-10       1.573842154427e-11      -8.564021547494e-15 
   31       1.450759658895e-10       3.193976216197e-15       2.563117441251e-13       0.000000000000e+00       1.418999031521e-10       1.484294521375e-11      -1.421269795460e-14 
   32       1.473026927531e-10       3.571242948999e-15       2.609011947150e-13       0.000000000000e+00       1.332769239581e-10       1.402838369186e-11      -1.930792548283e-14 
   33       1.495623316015e-10       3.970461213921e-15       2.640503292086e-13       0.000000000000e+00       1.253760680306e-10       1.327544636420e-11      -2.304622235807e-14 
   34       1.518421400884e-10       4.388368987794e-15       2.654170899387e-13       0.000000000000e+00       1.180856763449e-10       1.256120501968e-11      -2.468367626418e-14 
   35       1.541480209322e-10       4.827566210892e-15       2.649272623809e-13       0.000000000000e+00       1.113676609762e-10       1.188693085965e-11      -2.428858970247e-14 
   36       1.564866328258e-10       5.293079245213e-15       2.626102780691e-13       0.000000000000e+00       1.051673662248e-10       1.125917720475e-11      -2.226194189155e-14 
   37       1.588594356118e-10       5.790116852262e-15       2.585363625299e-13       0.000000000000e+00       9.940324171126e-11       1.068161499580e-11      -1.911158665857e-14 
   38       1.612675414894e-10       6.320971717024e-15       2.528215612570e-13       0.000000000000e+00       9.405985436519e-11       1.015313322903e-11      -1.531944270277e-14 
   39       1.637072491356e-10       6.887140760580e-15       2.456296159251e-13       0.000000000000e+00       8.911976540513e-11       9.668585303092e-12      -1.144554844656e-14 
   40       1.661678818244e-10       7.490154911995e-15       2.371746194993e-13       0.000000000000e+00       8.453525397716e-11       9.218881065529e-12      -8.173543256634e-15 
   41       1.686369016014e-10       8.131294442886e-15       2.276615947447e-13       0.000000000000e+00       8.024481259496e-11       8.793829742105e-12      -6.140742815456e-15 
   42       1.711188747140e-10       8.810623550959e-15       2.170774976789e-13       0.000000000000e+00       7.623543031239e-11       8.392563536386e-12      -5.343345356918e-15 
   43       1.736215453563e-10       9.527641479164e-15       2.053374072743e-13       0.000000000000e+00       7.249614671786e-11       8.015959900247e-12      -5.550547263869e-15 
   44       1.761503090084e-10       1.028152081790e-14       1.923400107525e-13       0.000000000000e+00       6.899937225035e-11       7.663660828858e-12      -6.461012076003e-15 
   45       1.787083224027e-10       1.107141895042e-14       1.779692076403e-13       0.000000000000e+00       6.571065143675e-11       7.334412428840e-12      -7.743028946189e-15 
   46       1.812975248027e-10       1.189756954943e-14       1.621023306195e-13       0.000000000000e+00       6.262454681421e-11       7.027457732686e-12      -9.180008165675e-15 
   47       1.839174512725e-10       1.276048409730e-14       1.446023346292e-13       0.000000000000e+00       5.973723536815e-11       6.741377615836e-12      -1.056075680995e-14 
   48       1.865646245812e-10       1.366064869727e-14       1.253141872798e-13       0.000000000000e+00       5.703569021254e-11       6.473600468964e-12      -1.163663780651e-14 
   49       1.892323007181e-10       1.459852356235e-14       1.040638267338e-13       0.000000000000e+00       5.449699769592e-11       6.220320554026e-12      -1.211960220490e-14 
   50       1.919133779654e-10       1.557449938858e-14       8.070503179799e-14       0.000000000000e+00       5.209520524628e-11       5.977590573363e-12      -1.177296138012e-14 
   51       1.946106454241e-10       1.658875370006e-14       5.527744834210e-14       0.000000000000e+00       4.982564053012e-11       5.745138413131e-12      -1.071731588139e-14 
   52       1.973288764418e-10       1.764135462696e-14       2.788965599925e-14       0.000000000000e+00       4.768601303012e-11       5.523445285142e-12      -9.204266169313e-15 
   53       2.000718050849e-10       1.873229813338e-14      -1.323811228266e-15       0.000000000000e+00       4.566913953982e-11       5.312636301119e-12      -7.533270167754e-15 
   54       2.028420205267e-10       1.986150547726e-14      -3.220125239532e-14       0.000000000000e+00       4.376261565732e-11       5.112454085821e-12      -6.054039766079e-15 
   55       2.056412012036e-10       2.102886461169e-14      -6.459230966927e-14       0.000000000000e+00       4.195256400816e-11       4.922428406851e-12      -5.084847984304e-15 
   56       2.084711273473e-10       2.223437225175e-14      -9.848747931751e-14       0.000000000000e+00       4.023672188388e-11       4.742494860843e-12      -4.638195111566e-15 
   57       2.113327350007e-10       2.347802265103e-14      -1.339186501115e-13       0.000000000000e+00       3.861402944936e-11       4.572483663531e-12      -4.631189808856e-15 
   58       2.142257079242e-10       2.475976594240e-14      -1.709225272955e-13       0.000000000000e+00       3.708067188878e-11       4.411918757109e-12      -4.962806962584e-15 
   59       2.171483852228e-10       2.607950730996e-14      -2.095409676482e-13       0.000000000000e+00       3.562990973296e-11       4.259999060380e-12      -5.513007978843e-15 
   60       2.200976689715e-10       2.743710616101e-14      -2.498213145433e-13       0.000000000000e+00       3.425190918672e-11       4.115579718889e-12      -6.141861077683e-15 
   61       2.230704073257e-10       2.883231929901e-14      -2.918075891360e-13       0.000000000000e+00       3.293645024465e-11       3.977476650974e-12      -6.718347306299e-15 
   62       2.260681156120e-10       3.026461741050e-14      -3.355109954057e-13       0.000000000000e+00       3.168214521342e-11       3.845502484549e-12      -7.216324408148e-15 
   63       2.290931558404e-10       3.173332572988e-14      -3.809333590956e-13       0.000000000000e+00       3.048899771546e-11       3.719630933718e-12      -7.638640049519e-15 
   64       2.321473100749e-10       3.323767385026e-14      -4.280757314293e-13       0.000000000000e+00       2.935563067996e-11       3.599685697779e-12      -7.989407809546e-15 
   65       2.352317348753e-10       3.477679311866e-14      -4.769384340434e-13       0.000000000000e+00       2.827920798020e-11       3.485331969299e-12      -8.274069379886e-15 
   66       2.383469157397e-10       3.634971403114e-14      -5.275211039207e-13       0.000000000000e+00       2.725535607102e-11       3.376067942189e-12      -8.499456764404e-15 
   67       2.414926215463e-10       3.795536362795e-14      -5.798227383228e-13       0.000000000000e+00       2.627808562618e-11       3.271216319782e-12      -8.673854478852e-15 
   68       2.446684221915e-10       3.959269462111e-14      -6.338392379275e-13       0.000000000000e+00       2.534137709377e-11       3.170112573107e-12      -8.806267672334e-15 
   69       2.478754651358e-10       4.126110898272e-14      -6.895553577146e-13       0.000000000000e+00       2.444448559768e-11       3.072732993738e-12      -8.903915250393e-15 
   70       2.511149786447e-10       4.296011590170e-14      -7.469511983432e-13       0.000000000000e+00       2.358757511370e-11       2.979179230442e-12      -8.974338196962e-15 
   71       2.543877098480e-10       4.468920839612e-14      -8.060045449315e-13       0.000000000000e+00       2.277011449416e-11       2.889489400965e-12      -9.026189848318e-15 
   72       2.576938935859e-10       4.644786407748e-14      -8.666908480043e-13       0.000000000000e+00       2.199084166073e-11       2.803634632085e-12      -9.069277783859e-15 
   73       2.610332212550e-10       4.823554591498e-14      -9.289832044423e-13       0.000000000000e+00       2.124772779732e-11       2.721515599658e-12      -9.114605716880e-15 
   74       2.644048096548e-10       5.005170299977e-14      -9.928523384299e-13       0.000000000000e+00       2.053794154290e-11       2.642959068669e-12      -9.174415385350e-15 
   75       2.678071698334e-10       5.189577130923e-14      -1.058266582404e-12       0.000000000000e+00       1.985781318436e-11       2.567714433284e-12      -9.262228442685e-15 
   76       2.712388364521e-10       5.376699347450e-14      -1.125190214923e-12       0.000000000000e+00       1.920373734495e-11       2.495518683178e-12      -9.389055387022e-15 
   77       2.747004572432e-10       5.566383844987e-14      -1.193578166471e-12       0.000000000000e+00       1.857515024194e-11       2.426312627969e-12      -9.551131628217e-15 
   78       2.781930297448e-10       5.758447691420e-14      -1.263380309132e-12       0.000000000000e+00       1.797203281431e-11       2.360057999510e-12      -9.740010750332e-15 
   79       2.817172572598e-10       5.952694997979e-14      -1.334542962135e-12       0.000000000000e+00       1.739400409685e-11       2.296670500026e-12      -9.946162961014e-15 
   80       2.852735312470e-10       6.148916624522e-14      -1.407008839104e-12       0.000000000000e+00       1.684030465767e-11       2.236017745292e-12      -1.015893838430e-14 
   81       2.888619137110e-10       6.346889884814e-14      -1.480716995319e-12       0.000000000000e+00       1.630978003565e-11       2.177917207825e-12      -1.036653035339e-14 
   82       2.924821195932e-10       6.546378251798e-14      -1.555602774970e-12       0.000000000000e+00       1.580086417788e-11       2.122134160066e-12      -1.055593870348e-14 
   83       2.961334991623e-10       6.747131062884e-14      -1.631597758411e-12       0.000000000000e+00       1.531156287715e-11       2.068379617569e-12      -1.071293306452e-14 
   84       2.998153982503e-10       6.948908456598e-14      -1.708637259988e-12       0.000000000000e+00       1.483993315579e-11       2.016378693127e-12      -1.082493057235e-14 
   85       3.035283461495e-10       7.151561577992e-14      -1.786684365213e-12       0.000000000000e+00       1.438564900828e-11       1.966093184391e-12      -1.089025754376e-14 
   86       3.072730332736e-10       7.354965191060e-14      -1.865709800266e-12       0.000000000000e+00       1.394866606584e-11       1.917532287068e-12      -1.091036302890e-14 
   87       3.110499397278e-10       7.558993756980e-14      -1.945684808787e-12       0.000000000000e+00       1.352874062252e-11       1.870684604268e-12      -1.088705300032e-14 
   88       3.148593240500e-10       7.763521563453e-14      -2.026581226035e-12       0.000000000000e+00       1.312542140787e-11       1.825517273075e-12      -1.082250262759e-14 
   89       3.187012119516e-10       7.968422854035e-14      -2.108371553040e-12       0.000000000000e+00       1.273804135961e-11       1.781975091107e-12      -1.071926855190e-14 
   90       3.225753850587e-10       8.173571957476e-14      -2.191029030761e-12       0.000000000000e+00       1.236570939638e-11       1.739979643076e-12      -1.058030116071e-14 
   91       3.264813696525e-10       8.378843417050e-14      -2.274527714245e-12       0.000000000000e+00       1.200730219040e-11       1.699428427357e-12      -1.040895686232e-14 
   92       3.304184254110e-10       8.584112119895e-14      -2.358842546778e-12       0.000000000000e+00       1.166145594018e-11       1.660193982545e-12      -1.020901036051e-14 
   93       3.343858106448e-10       8.789243475775e-14      -2.443941948607e-12       0.000000000000e+00       1.132688653579e-11       1.622155429365e-12      -9.984452167111e-15 
   94       3.383836480957e-10       8.994061982790e-14      -2.529764146981e-12       0.000000000000e+00       1.100342300705e-11       1.585300420079e-12      -9.738819642048e-15 
   95       3.424121691436e-10       9.198378151074e-14      -2.616237406686e-12       0.000000000000e+00       1.069111501777e-11       1.549636978726e-12      -9.475787568059e-15 
   96       3.464714415495e-10       9.401998024964e-14      -2.703287170074e-12       0.000000000000e+00       1.038991465271e-11       1.515162029260e-12      -9.199383149676e-15 
   97       3.505613619917e-10       9.604723175737e-14      -2.790836028463e-12       0.000000000000e+00       1.009967269805e-11       1.481860967079e-12      -8.913995339848e-15 
   98       3.546816486028e-10       9.806350694363e-14      -2.878803693548e-12       0.000000000000e+00       9.820134921871e-12       1.449707230543e-12      -8.624384166545e-15 
   99       3.588318335050e-10       1.000667318425e-13      -2.967106968797e-12       0.000000000000e+00       9.550938354645e-12       1.418661872500e-12      -8.335690059377e-15 
  100       3.630112553474e-10       1.020547875397e-13      -3.055659720865e-12       0.000000000000e+00       9.291607569733e-12       1.388673131807e-12      -8.053443176200e-15 
  101       3.672190518418e-10       1.040255101004e-13      -3.144372850991e-12       0.000000000000e+00       9.041550963867e-12       1.359676004856e-12      -7.783572729736e-15 
  102       3.714541522993e-10       1.059766904965e-13      -3.233154266408e-12       0.000000000000e+00       8.800057037632e-12       1.331591817097e-12      -7.532416314180e-15 
  103       3.757152701662e-10       1.079060745338e-13      -3.321908851746e-12       0.000000000000e+00       8.566290675962e-12       1.304327794557e-12      -7.306729231814e-15 
  104       3.800011824905e-10       1.098114649239e-13      -3.410544627299e-12       0.000000000000e+00       8.339480454660e-12       1.277798159656e-12      -7.112146646670e-15 
  105       3.843116273897e-10       1.116910433579e-13      -3.498992232845e-12       0.000000000000e+00       8.119517387611e-12       1.251991587023e-12      -6.948313365690e-15 
  106       3.886465144677e-10       1.135430920073e-13      -3.587188034754e-12       0.000000000000e+00       7.906430503888e-12       1.226912103589e-12      -6.813110486762e-15 
  107       3.930056444526e-10       1.153658963023e-13      -3.675068213065e-12       0.000000000000e+00       7.700201443586e-12       1.202558188392e-12      -6.704136239830e-15 
