# dimensionless total [l(l+1)/2pi] C_l's
# for l=2 to 3000, i.e. number of multipoles equal to 2999
#
# -> if you prefer output in CAMB/HealPix/LensPix units/order, set 'format' to 'camb' in input file
# -> if you don't want to see such a header, set 'headers' to 'no' in input file
# -> for CMB lensing (phi), these are C_l^phi-phi for the lensing potential.
#    Remember the conversion factors:
#    C_l^dd (deflection) = l(l+1) C_l^phi-phi
#    C_l^gg (shear/convergence) = 1/4 (l(l+1))^2 C_l^phi-phi
#
# 1:l     2:TT                     3:EE                     4:TE                     5:BB                     6:phiphi                 7:TPhi                   8:Ephi               
    2       1.495435024973e-10       7.310457702293e-15       4.819478950459e-13       0.000000000000e+00       8.695515862361e-09       4.855419557382e-10      -2.515318087007e-12 
    3       1.409428768843e-10       1.238899756100e-14       6.072010664028e-13       0.000000000000e+00       5.417908921004e-09       3.465371409088e-10      -2.211468804870e-12 
    4       1.324705990969e-10       1.446820182106e-14       6.281601755260e-13       0.000000000000e+00       3.776090343748e-09       2.636970070878e-10      -1.764187105583e-12 
    5       1.257578179247e-10       1.338365692071e-14       5.883050062019e-13       0.000000000000e+00       2.820193626334e-09       2.091974943604e-10      -1.309701359135e-12 
    6       1.208110318656e-10       1.032982530803e-14       5.177075071943e-13       0.000000000000e+00       2.201978302822e-09       1.707969809117e-10      -8.951397533098e-13 
    7       1.173341714023e-10       6.848161127776e-15       4.367871115660e-13       0.000000000000e+00       1.774885840264e-09       1.424544324719e-10      -5.447603465215e-13 
    8       1.150078883231e-10       4.047366450124e-15       3.578504141771e-13       0.000000000000e+00       1.466309872991e-09       1.208158507377e-10      -2.693289638486e-13 
    9       1.135869064889e-10       2.339276384844e-15       2.881936610686e-13       0.000000000000e+00       1.235198264857e-09       1.038458811633e-10      -7.046218068466e-14 
   10       1.128565758875e-10       1.572943402783e-15       2.318797301139e-13       0.000000000000e+00       1.056521409573e-09       9.027378545240e-11       5.717309161763e-14 
   11       1.126762813521e-10       1.346514093763e-15       1.905985394456e-13       0.000000000000e+00       8.886623221978e-10       7.948654413521e-11       1.231679954588e-13 
   12       1.129380436499e-10       1.289049299335e-15       1.640758773729e-13       0.000000000000e+00       7.765028609368e-10       7.026716746686e-11       1.421213014941e-13 
   13       1.135214462185e-10       1.201770762780e-15       1.505520790190e-13       0.000000000000e+00       6.844334159245e-10       6.273204267619e-11       1.277943378239e-13 
   14       1.143278548289e-10       1.056003116015e-15       1.474124492688e-13       0.000000000000e+00       6.078295491902e-10       5.619596318389e-11       9.291953509148e-14 
   15       1.153645837054e-10       9.115162860344e-16       1.516652492113e-13       0.000000000000e+00       5.433497847359e-10       5.073335155650e-11       4.975560861325e-14 
   16       1.165910464794e-10       8.298291432320e-16       1.603442721422e-13       0.000000000000e+00       4.885271379444e-10       4.610233227286e-11       7.427912175510e-15 
   17       1.179262238484e-10       8.286406038659e-16       1.708450603227e-13       0.000000000000e+00       4.414983010338e-10       4.210440136911e-11      -2.770754920234e-14 
   18       1.193726776284e-10       8.808901579004e-16       1.813265716092e-13       0.000000000000e+00       4.006783566459e-10       3.855487751509e-11      -5.212094727477e-14 
   19       1.209383529279e-10       9.538263626368e-16       1.908369459415e-13       0.000000000000e+00       3.654221752954e-10       3.542433052259e-11      -6.494923062439e-14 
   20       1.225683532283e-10       1.013684989812e-15       1.986397644806e-13       0.000000000000e+00       3.343692299712e-10       3.265929612179e-11      -6.703061774746e-14 
   21       1.242745412796e-10       1.063261506369e-15       2.048024879874e-13       0.000000000000e+00       3.070320955768e-10       3.021436627293e-11      -6.047076934800e-14 
   22       1.260561638396e-10       1.120578917215e-15       2.097612945226e-13       0.000000000000e+00       2.827577151756e-10       2.800667560724e-11      -4.856762659786e-14 
   23       1.279021495677e-10       1.204971251654e-15       2.139719136900e-13       0.000000000000e+00       2.612125846703e-10       2.600493385012e-11      -3.424111144032e-14 
   24       1.297802707974e-10       1.335043029034e-15       2.179702746987e-13       0.000000000000e+00       2.418986847883e-10       2.417595299987e-11      -2.058000706147e-14 
   25       1.317077788848e-10       1.511492538090e-15       2.222529099471e-13       0.000000000000e+00       2.245891301938e-10       2.253016443933e-11      -9.465729903304e-15 
   26       1.336974666467e-10       1.727617134333e-15       2.272626876485e-13       0.000000000000e+00       2.089709924756e-10       2.107103225697e-11      -2.288783968795e-15 
   27       1.357301829071e-10       1.976753056891e-15       2.330203905586e-13       0.000000000000e+00       1.948570262091e-10       1.976486331641e-11       7.501793952348e-16 
   28       1.377698042285e-10       2.252101409453e-15       2.393425067974e-13       0.000000000000e+00       1.820039453372e-10       1.855959738821e-11       4.444809887228e-17 
   29       1.398261296394e-10       2.553214683467e-15       2.459216780688e-13       0.000000000000e+00       1.703461880316e-10       1.745093092302e-11      -3.606081943605e-15 
   30       1.419136868401e-10       2.881540134992e-15       2.523165017332e-13       0.000000000000e+00       1.597586661176e-10       1.644080340747e-11      -8.985055291590e-15 
   31       1.440366170657e-10       3.237890914226e-15       2.580076636688e-13       0.000000000000e+00       1.500255252820e-10       1.552182805331e-11      -1.466322223947e-14 
   32       1.461977889618e-10       3.620062052329e-15       2.626240398774e-13       0.000000000000e+00       1.410965811036e-10       1.468468801848e-11      -1.976965833230e-14 
   33       1.483903669842e-10       4.024217130655e-15       2.657906437685e-13       0.000000000000e+00       1.329087701155e-10       1.391158291330e-11      -2.348229706712e-14 
   34       1.506013316976e-10       4.447029103476e-15       2.671456722143e-13       0.000000000000e+00       1.253476010365e-10       1.318073274058e-11      -2.504386471744e-14 
   35       1.528372655073e-10       4.891245163440e-15       2.666187914654e-13       0.000000000000e+00       1.183744306686e-10       1.249242584346e-11      -2.454573870128e-14 
   36       1.551059316933e-10       5.362139181079e-15       2.642523835185e-13       0.000000000000e+00       1.119333703317e-10       1.185120951853e-11      -2.242881288459e-14 
   37       1.574097202237e-10       5.865151067614e-15       2.601288069337e-13       0.000000000000e+00       1.059406532280e-10       1.125875796261e-11      -1.923888580202e-14 
   38       1.597491520145e-10       6.402536582626e-15       2.543610939777e-13       0.000000000000e+00       1.003808314741e-10       1.071405404736e-11      -1.545533965055e-14 
   39       1.621193021540e-10       6.975655975700e-15       2.471044268141e-13       0.000000000000e+00       9.523629617995e-11       1.021272256864e-11      -1.162099720935e-14 
   40       1.645079741782e-10       7.585868215427e-15       2.385624752963e-13       0.000000000000e+00       9.045801464069e-11       9.746573325503e-12      -8.397501250883e-15 
   41       1.669013098128e-10       8.234304137238e-15       2.289315442667e-13       0.000000000000e+00       8.598262083198e-11       9.306239474111e-12      -6.400624759703e-15 
   42       1.693044806549e-10       8.921102567873e-15       2.182039659897e-13       0.000000000000e+00       8.179696799883e-11       8.890891922564e-12      -5.624003156913e-15 
   43       1.717265657443e-10       9.645921684636e-15       2.063057340956e-13       0.000000000000e+00       7.788997607005e-11       8.501150707264e-12      -5.840214269351e-15 
   44       1.741745750335e-10       1.040812471617e-14       1.931487818030e-13       0.000000000000e+00       7.423326075021e-11       8.136287379527e-12      -6.752271643275e-15 
   45       1.766531277519e-10       1.120702957059e-14       1.786297181800e-13       0.000000000000e+00       7.079127845052e-11       7.794674522383e-12      -8.032723715995e-15 
   46       1.791639863881e-10       1.204278848976e-14       1.626281059251e-13       0.000000000000e+00       6.755862439326e-11       7.475566742332e-12      -9.465449362373e-15 
   47       1.817059404914e-10       1.291574122107e-14       1.450058499928e-13       0.000000000000e+00       6.453154162849e-11       7.177655646935e-12      -1.083863166677e-14 
   48       1.842745987998e-10       1.382616822217e-14       1.256062951083e-13       0.000000000000e+00       6.169667086792e-11       6.898470238013e-12      -1.190293841700e-14 
   49       1.868621253440e-10       1.477428833038e-14       1.042531453825e-13       0.000000000000e+00       5.903033637403e-11       6.634293947700e-12      -1.236955115070e-14 
   50       1.894604534778e-10       1.576026799592e-14       8.079745581539e-14       0.000000000000e+00       5.650567836425e-11       6.381244368324e-12      -1.200161992710e-14 
   51       1.920725686971e-10       1.678425734354e-14       5.527615058017e-14       0.000000000000e+00       5.411798933084e-11       6.139050431975e-12      -1.092246578221e-14 
   52       1.947038322548e-10       1.784635987075e-14       2.779466522336e-14       0.000000000000e+00       5.186502059401e-11       5.908157095366e-12      -9.387629431874e-15 
   53       1.973586730566e-10       1.894661999543e-14      -1.516210761919e-15       0.000000000000e+00       4.973940018226e-11       5.688624676818e-12      -7.701125330181e-15 
   54       2.000404874325e-10       2.008502126938e-14      -3.249915211461e-14       0.000000000000e+00       4.772828796912e-11       5.480100607323e-12      -6.217867220460e-15 
   55       2.027516733166e-10       2.126151537793e-14      -6.500798978454e-14       0.000000000000e+00       4.581729437897e-11       5.282011841528e-12      -5.260325705214e-15 
   56       2.054939723434e-10       2.247612166778e-14      -9.903445925293e-14       0.000000000000e+00       4.400416654185e-11       5.094262780587e-12      -4.838699168320e-15 
   57       2.082680371774e-10       2.372884921493e-14      -1.346108691630e-13       0.000000000000e+00       4.228789801830e-11       4.916661248089e-12      -4.865475845670e-15 
   58       2.110732116260e-10       2.501966763059e-14      -1.717743117197e-13       0.000000000000e+00       4.066458825228e-11       4.748693796460e-12      -5.234215156841e-15 
   59       2.139074356478e-10       2.634850647427e-14      -2.105669954319e-13       0.000000000000e+00       3.912726382101e-11       4.589506055162e-12      -5.818631646484e-15 
   60       2.167671503603e-10       2.771525466674e-14      -2.510365778550e-13       0.000000000000e+00       3.766569968487e-11       4.437883078893e-12      -6.471678925729e-15 
   61       2.196487948030e-10       2.911969790106e-14      -2.932262796853e-13       0.000000000000e+00       3.626925907185e-11       4.292576800805e-12      -7.056110716689e-15 
   62       2.225539037193e-10       3.056131578692e-14      -3.371418812567e-13       0.000000000000e+00       3.493656240443e-11       4.153418739715e-12      -7.546252392540e-15 
   63       2.254849906692e-10       3.203943792432e-14      -3.827778747969e-13       0.000000000000e+00       3.366768134877e-11       4.020423316152e-12      -7.947551551029e-15 
   64       2.284440136396e-10       3.355329938398e-14      -4.301270377245e-13       0.000000000000e+00       3.246123036326e-11       3.893454319223e-12      -8.267197732539e-15 
   65       2.314323305576e-10       3.510203815308e-14      -4.791804411610e-13       0.000000000000e+00       3.131428372734e-11       3.772216268196e-12      -8.514205106168e-15 
   66       2.344506548039e-10       3.668469258096e-14      -5.299274584435e-13       0.000000000000e+00       3.022229257035e-11       3.656245774073e-12      -8.699495155800e-15 
   67       2.374990107260e-10       3.830019882491e-14      -5.823557736368e-13       0.000000000000e+00       2.917900190042e-11       3.544902901169e-12      -8.835979366183e-15 
   68       2.405771961283e-10       3.994749935485e-14      -6.364516775744e-13       0.000000000000e+00       2.817812134043e-11       3.437553849838e-12      -8.936877915157e-15 
   69       2.436863780046e-10       4.162589970742e-14      -6.922010066088e-13       0.000000000000e+00       2.721891591550e-11       3.334181298210e-12      -9.010095320823e-15 
   70       2.468277417108e-10       4.333477976321e-14      -7.495884102428e-13       0.000000000000e+00       2.630160425823e-11       3.234882781551e-12      -9.062848457025e-15 
   71       2.500019816413e-10       4.507348936478e-14      -8.085970960129e-13       0.000000000000e+00       2.542566769895e-11       3.139686635340e-12      -9.103366609739e-15 
   72       2.532092697082e-10       4.684134860281e-14      -8.692088453554e-13       0.000000000000e+00       2.458981214636e-11       3.048548249980e-12      -9.140929048223e-15 
   73       2.564492238210e-10       4.863764810219e-14      -9.314040294725e-13       0.000000000000e+00       2.379192996828e-11       2.961346325492e-12      -9.185902596152e-15 
   74       2.597208763657e-10       5.046164930815e-14      -9.951616251984e-13       0.000000000000e+00       2.302906187226e-11       2.877879126224e-12      -9.249779202768e-15 
   75       2.630226426847e-10       5.231258477240e-14      -1.060459230866e-12       0.000000000000e+00       2.229735878637e-11       2.797860735547e-12      -9.345213514021e-15 
   76       2.663529670190e-10       5.418950983367e-14      -1.127268910768e-12       0.000000000000e+00       2.159303740489e-11       2.720994738420e-12      -9.482315758107e-15 
   77       2.697124660021e-10       5.609082580191e-14      -1.195543818635e-12       0.000000000000e+00       2.091553225690e-11       2.647219060263e-12      -9.656666904939e-15 
   78       2.731021205921e-10       5.801466994028e-14      -1.265229152372e-12       0.000000000000e+00       2.026485184803e-11       2.576499178618e-12      -9.859176118573e-15 
   79       2.765226159415e-10       5.995905364057e-14      -1.336266040528e-12       0.000000000000e+00       1.964061853136e-11       2.508752533473e-12      -1.007959297682e-14 
   80       2.799743237678e-10       6.192185966209e-14      -1.408591472617e-12       0.000000000000e+00       1.904205076408e-11       2.443846369685e-12      -1.030646825458e-14 
   81       2.834572847256e-10       6.390083937043e-14      -1.482138229451e-12       0.000000000000e+00       1.846794536400e-11       2.381595579406e-12      -1.052711470715e-14 
   82       2.869711907773e-10       6.589360997639e-14      -1.556834813464e-12       0.000000000000e+00       1.791665976624e-11       2.321760544504e-12      -1.072756785361e-14 
   83       2.905153675651e-10       6.789765177476e-14      -1.632605379044e-12       0.000000000000e+00       1.738609427977e-11       2.264044978985e-12      -1.089254676011e-14 
   84       2.940891387105e-10       6.991056192985e-14      -1.709378579752e-12       0.000000000000e+00       1.687420242676e-11       2.208166718926e-12      -1.100858026726e-14 
   85       2.976930267207e-10       7.193087022017e-14      -1.787115947789e-12       0.000000000000e+00       1.638065803452e-11       2.154088302200e-12      -1.107406704746e-14 
   86       3.013277197717e-10       7.395735409326e-14      -1.865788113382e-12       0.000000000000e+00       1.590543326543e-11       2.101820835900e-12      -1.109081914435e-14 
   87       3.049936964357e-10       7.598879567055e-14      -1.945366385197e-12       0.000000000000e+00       1.544828636915e-11       2.051353529654e-12      -1.106105858818e-14 
   88       3.086912144719e-10       7.802398329784e-14      -2.025822830536e-12       0.000000000000e+00       1.500875281463e-11       2.002652764057e-12      -1.098743137992e-14 
   89       3.124202996165e-10       8.006171309592e-14      -2.107130355524e-12       0.000000000000e+00       1.458613642201e-11       1.955661159098e-12      -1.087302147531e-14 
   90       3.161807343728e-10       8.210079051109e-14      -2.189262785307e-12       0.000000000000e+00       1.417950049454e-11       1.910296642596e-12      -1.072136476893e-14 
   91       3.199720468023e-10       8.414003186575e-14      -2.272194944237e-12       0.000000000000e+00       1.378765895058e-11       1.866451518628e-12      -1.053646307830e-14 
   92       3.237934993142e-10       8.617826590890e-14      -2.355902736069e-12       0.000000000000e+00       1.340916745552e-11       1.823991535965e-12      -1.032279812793e-14 
   93       3.276443505294e-10       8.821421078519e-14      -2.440355260308e-12       0.000000000000e+00       1.304266613057e-11       1.782789587844e-12      -1.008500282439e-14 
   94       3.315247102722e-10       9.024608040746e-14      -2.525489630760e-12       0.000000000000e+00       1.268798590174e-11       1.742834632529e-12      -9.826788152773e-15 
   95       3.354347930420e-10       9.227192147394e-14      -2.611232500333e-12       0.000000000000e+00       1.234519292396e-11       1.704137508259e-12      -9.551879989582e-15 
   96       3.393746490364e-10       9.428973261739e-14      -2.697507658688e-12       0.000000000000e+00       1.201424784241e-11       1.666697311464e-12      -9.264356586499e-15 
   97       3.433441566901e-10       9.629746424555e-14      -2.784236003112e-12       0.000000000000e+00       1.169500175055e-11       1.630500940575e-12      -8.968657850167e-15 
   98       3.473430152136e-10       9.829301838160e-14      -2.871335509396e-12       0.000000000000e+00       1.138719214808e-11       1.595522639833e-12      -8.669594621946e-15 
   99       3.513707371319e-10       1.002742485046e-13      -2.958721202702e-12       0.000000000000e+00       1.109043889894e-11       1.561723543102e-12      -8.372357957679e-15 
  100       3.554266408233e-10       1.022389593898e-13      -3.046305128441e-12       0.000000000000e+00       1.080424018924e-11       1.529051217677e-12      -8.082528407452e-15 
  101       3.595098430580e-10       1.041849069493e-13      -3.133996323144e-12       0.000000000000e+00       1.052796848529e-11       1.497439208095e-12      -7.806085295358e-15 
  102       3.636192515372e-10       1.061097980724e-13      -3.221700785338e-12       0.000000000000e+00       1.026086649158e-11       1.466806579943e-12      -7.549415999258e-15 
  103       3.677535574316e-10       1.080112904661e-13      -3.309321446417e-12       0.000000000000e+00       1.000204310873e-11       1.437057463673e-12      -7.319325230545e-15 
  104       3.719115151304e-10       1.098871103779e-13      -3.396764598480e-12       0.000000000000e+00       9.750675447163e-12       1.408102872485e-12      -7.121475960396e-15 
  105       3.760928405979e-10       1.117354242200e-13      -3.483960229470e-12       0.000000000000e+00       9.506654652997e-12       1.379930495142e-12      -6.955452353834e-15 
  106       3.802974210269e-10       1.135545170826e-13      -3.570844393502e-12       0.000000000000e+00       9.270020194476e-12       1.352543524573e-12      -6.819044105421e-15 
  107       3.845250342121e-10       1.153426804563e-13      -3.657353040529e-12       0.000000000000e+00       9.040759840619e-12       1.325939016831e-12      -6.709747378313e-15 
