# Matter power spectrum P(k) at redshift z=0
# for k=1.04513e-05 to 1.5402 h/Mpc,
# number of wavenumbers equal to 612
#    1:k (h/Mpc)              2:P (Mpc/h)^3        
       1.045132994176e-05       5.104875198658e+01 
       2.337474330154e-05       1.109993481435e+02 
       3.634381503551e-05       1.699365031854e+02 
       4.939367025872e-05       2.284818824484e+02 
       6.256001807272e-05       2.869916723206e+02 
       7.587947206807e-05       3.457344019353e+02 
       8.938988112919e-05       4.049407820058e+02 
       1.031306749685e-04       4.648241424286e+02 
       1.171432288506e-04       5.255909278196e+02 
       1.314712520002e-04       5.874471265711e+02 
       1.461612041942e-04       6.506025952382e+02 
       1.612627449735e-04       7.152748191144e+02 
       1.768292197214e-04       7.816915764320e+02 
       1.929181864710e-04       8.500939335484e+02 
       2.095919866144e-04       9.207388130599e+02 
       2.269183615604e-04       9.939015482154e+02 
       2.449711156526e-04       1.069878614195e+03 
       2.638308230776e-04       1.148990232483e+03 
       2.835855727874e-04       1.231583037592e+03 
       3.043317402869e-04       1.318032683063e+03 
       3.261747681027e-04       1.408746339391e+03 
       3.492299274308e-04       1.504164969956e+03 
       3.736230214860e-04       1.604765043004e+03 
       3.994909761795e-04       1.711059524064e+03 
       4.269822459888e-04       1.823598511779e+03 
       4.562569428556e-04       1.942967543539e+03 
       4.874865751099e-04       2.069784514174e+03 
       5.208532645285e-04       2.204694948970e+03 
       5.565482970598e-04       2.348363094580e+03 
       5.947698626833e-04       2.501460806957e+03 
       6.357198600455e-04       2.664652170336e+03 
       6.795996900919e-04       2.838574455373e+03 
       7.266050462420e-04       3.023815485902e+03 
       7.769198279422e-04       3.220888156137e+03 
       8.307094517352e-04       3.430203612657e+03 
       8.881139893263e-04       3.652044829072e+03 
       9.492416936376e-04       3.886542947585e+03 
       1.014163543308e-03       4.133659487348e+03 
       1.082909410000e-03       4.393175706650e+03 
       1.155466316146e-03       4.664692149766e+03 
       1.231779017247e-03       4.947637627326e+03 
       1.311752856015e-03       5.241288248664e+03 
       1.395258557041e-03       5.544785691662e+03 
       1.482138420102e-03       5.857179319514e+03 
       1.572213265938e-03       6.177471602429e+03 
       1.665289497448e-03       6.504621119241e+03 
       1.761165739936e-03       6.837583891845e+03 
       1.859638677882e-03       7.175337562437e+03 
       1.960507872408e-03       7.516899169893e+03 
       2.063579492077e-03       7.861339310456e+03 
       2.168669002203e-03       8.207793190876e+03 
       2.275602930140e-03       8.555463377163e+03 
       2.384219860002e-03       8.903623524366e+03 
       2.494370818723e-03       9.251617891465e+03 
       2.605919205651e-03       9.598857077425e+03 
       2.718740398180e-03       9.944816355648e+03 
       2.832721142380e-03       1.028903118910e+04 
       2.947758814087e-03       1.063109130467e+04 
       3.063760614788e-03       1.097063662360e+04 
       3.180642748809e-03       1.130735399914e+04 
       3.298329613975e-03       1.164096917958e+04 
       3.416753026839e-03       1.197124598738e+04 
       3.535851495310e-03       1.229797985992e+04 
       3.655569545488e-03       1.262099495105e+04 
       3.775857105337e-03       1.294014161522e+04 
       3.896668944925e-03       1.325529204530e+04 
       4.017964171164e-03       1.356633881005e+04 
       4.139705773836e-03       1.387319172077e+04 
       4.261860219098e-03       1.417577625700e+04 
       4.384397086415e-03       1.447403310496e+04 
       4.507288744851e-03       1.476791175495e+04 
       4.630510064787e-03       1.505737698349e+04 
       4.754038161367e-03       1.534240127389e+04 
       4.877852166256e-03       1.562296567736e+04 
       5.001933024567e-03       1.589905922023e+04 
       5.126263314143e-03       1.617067906218e+04 
       5.250827084649e-03       1.643782703230e+04 
       5.375609714215e-03       1.670050625160e+04 
       5.500597781609e-03       1.695873125446e+04 
       5.625778952148e-03       1.721252041275e+04 
       5.751141875787e-03       1.746189310208e+04 
       5.876676095971e-03       1.770687117850e+04 
       6.002371968028e-03       1.794747962929e+04 
       6.128220586028e-03       1.818374587760e+04 
       6.254213717133e-03       1.841569819863e+04 
       6.380343742616e-03       1.864337185062e+04 
       6.506603604799e-03       1.886679567521e+04 
       6.632986759256e-03       1.908600313613e+04 
       6.759487131706e-03       1.930102968802e+04 
       6.886099079088e-03       1.951191099361e+04 
       7.012817354374e-03       1.971868461210e+04 
       7.139637074707e-03       1.992138675585e+04 
       7.266553692533e-03       2.012005659306e+04 
       7.393562969403e-03       2.031473012897e+04 
       7.520660952174e-03       2.050544932936e+04 
       7.647843951359e-03       2.069225487845e+04 
       7.775108521422e-03       2.087517913599e+04 
       7.902451442805e-03       2.105427012598e+04 
       8.029869705529e-03       2.122956638117e+04 
       8.157360494220e-03       2.140110385832e+04 
       8.284921174402e-03       2.156892614338e+04 
       8.412549279956e-03       2.173306991198e+04 
       8.540242501627e-03       2.189357776036e+04 
       8.667998676480e-03       2.205048964647e+04 
       8.795815778213e-03       2.220384085304e+04 
       8.923691908270e-03       2.235366945902e+04 
       9.051625287644e-03       2.250001934899e+04 
       9.179614249353e-03       2.264291945026e+04 
       9.307657231485e-03       2.278241887166e+04 
       9.435752770806e-03       2.291854695365e+04 
       9.563899496842e-03       2.305134738882e+04 
       9.692096126420e-03       2.318085702238e+04 
       9.820341458630e-03       2.330710851790e+04 
       9.948634370150e-03       2.343014074021e+04 
       1.007697381093e-02       2.354998816816e+04 
       1.020535880020e-02       2.366670071678e+04 
       1.033378842273e-02       2.378029170921e+04 
       1.046226182545e-02       2.389081059396e+04 
       1.059077821420e-02       2.399830183989e+04 
       1.071933685082e-02       2.410278266722e+04 
       1.084793705036e-02       2.420429858624e+04 
       1.097657817857e-02       2.430287539087e+04 
       1.110525964949e-02       2.439855565369e+04 
       1.123398092326e-02       2.449136757879e+04 
       1.136274150408e-02       2.458135283672e+04 
       1.149154093829e-02       2.466852897384e+04 
       1.162037881259e-02       2.475294265923e+04 
       1.174925475243e-02       2.483462028126e+04 
       1.187816842043e-02       2.491358609206e+04 
       1.200711951495e-02       2.498988796919e+04 
       1.213610776884e-02       2.506354543564e+04 
       1.226513294809e-02       2.513459668831e+04 
       1.239419485078e-02       2.520306701162e+04 
       1.252329330598e-02       2.526899115667e+04 
       1.265242817275e-02       2.533239593177e+04 
       1.278159933923e-02       2.539332369615e+04 
       1.291080672181e-02       2.545179162846e+04 
       1.304005026429e-02       2.550782489709e+04 
       1.316932993721e-02       2.556148121560e+04 
       1.329864573716e-02       2.561275349296e+04 
       1.342799768611e-02       2.566168773323e+04 
       1.355738583091e-02       2.570831975892e+04 
       1.368681024273e-02       2.575266217050e+04 
       1.381627101655e-02       2.579475042711e+04 
       1.394576827077e-02       2.583461541761e+04 
       1.407530214678e-02       2.587227264869e+04 
       1.420487280861e-02       2.590775441308e+04 
       1.433448044259e-02       2.594109645161e+04 
       1.446412525704e-02       2.597231802144e+04 
       1.459380748206e-02       2.600144089876e+04 
       1.472352736924e-02       2.602849991166e+04 
       1.485328519150e-02       2.605351475093e+04 
       1.498308124288e-02       2.607652267384e+04 
       1.511291583844e-02       2.609753672504e+04 
       1.524278931407e-02       2.611660977665e+04 
       1.537270202646e-02       2.613373453494e+04 
       1.550265435300e-02       2.614894997556e+04 
       1.563264669172e-02       2.616230587926e+04 
       1.576267946127e-02       2.617378748765e+04 
       1.589275310093e-02       2.618343103302e+04 
       1.602286807059e-02       2.619126177785e+04 
       1.615302485083e-02       2.619729453728e+04 
       1.628322394294e-02       2.620156466689e+04 
       1.641346586900e-02       2.620409743937e+04 
       1.654375117200e-02       2.620491393827e+04 
       1.667408041591e-02       2.620403292618e+04 
       1.680445418585e-02       2.620148183614e+04 
       1.693487308823e-02       2.619728041463e+04 
       1.706533775087e-02       2.619144934063e+04 
       1.719584882325e-02       2.618402773129e+04 
       1.732640697668e-02       2.617502136078e+04 
       1.745701290450e-02       2.616446641749e+04 
       1.758766732234e-02       2.615236031242e+04 
       1.771837096839e-02       2.613875128823e+04 
       1.784912460359e-02       2.612365334006e+04 
       1.797992901199e-02       2.610709939978e+04 
       1.811078500105e-02       2.608907106964e+04 
       1.824169340188e-02       2.606964784813e+04 
       1.837265506968e-02       2.604880323569e+04 
       1.850367088400e-02       2.602656754593e+04 
       1.863474174917e-02       2.600295689433e+04 
       1.876586859465e-02       2.597802999021e+04 
       1.889705237544e-02       2.595178510557e+04 
       1.902829407251e-02       2.592423337599e+04 
       1.915959469322e-02       2.589538277639e+04 
       1.929095527179e-02       2.586528764388e+04 
       1.942237686976e-02       2.583392277275e+04 
       1.955386057647e-02       2.580137698938e+04 
       1.968540750961e-02       2.576759486825e+04 
       1.981701881570e-02       2.573266184132e+04 
       1.994869567065e-02       2.569654856550e+04 
       2.008043928034e-02       2.565931062059e+04 
       2.021225088121e-02       2.562092818958e+04 
       2.034413174081e-02       2.558143509318e+04 
       2.047608315850e-02       2.554088907412e+04 
       2.060810646605e-02       2.549924487817e+04 
       2.074020302833e-02       2.545654276602e+04 
       2.087237424398e-02       2.541279613076e+04 
       2.100462154615e-02       2.536807628410e+04 
       2.113694640319e-02       2.532235539718e+04 
       2.126935031947e-02       2.527561950848e+04 
       2.140183483613e-02       2.522795311661e+04 
       2.153440153187e-02       2.517931999284e+04 
       2.166705202383e-02       2.512977458596e+04 
       2.179978796841e-02       2.507933699545e+04 
       2.193261106219e-02       2.502796720828e+04 
       2.206552304281e-02       2.497576382823e+04 
       2.219852568997e-02       2.492266842280e+04 
       2.233162082632e-02       2.486874266311e+04 
       2.246481031856e-02       2.481408394656e+04 
       2.259809607840e-02       2.475849586963e+04 
       2.273148006366e-02       2.470212074004e+04 
       2.286496427938e-02       2.464497799513e+04 
       2.299855077894e-02       2.458710238386e+04 
       2.313224166522e-02       2.452850865239e+04 
       2.326603909184e-02       2.446910814886e+04 
       2.339994526440e-02       2.440903529647e+04 
       2.353396244172e-02       2.434825095403e+04 
       2.366809293725e-02       2.428678837781e+04 
       2.380233912034e-02       2.422470117685e+04 
       2.393670341773e-02       2.416189213578e+04 
       2.407118831499e-02       2.409850690126e+04 
       2.420579635797e-02       2.403440044036e+04 
       2.434053015442e-02       2.396972275390e+04 
       2.447539237557e-02       2.390449089268e+04 
       2.461038575776e-02       2.383863872175e+04 
       2.474551310416e-02       2.377225063181e+04 
       2.488077728654e-02       2.370526168825e+04 
       2.501618124710e-02       2.363777110801e+04 
       2.515172800032e-02       2.356972286741e+04 
       2.528742063492e-02       2.350113430244e+04 
       2.542326231586e-02       2.343210366052e+04 
       2.555925628643e-02       2.336255634358e+04 
       2.569540587037e-02       2.329252718321e+04 
       2.583171447411e-02       2.322202229217e+04 
       2.596818558905e-02       2.315108386110e+04 
       2.610482279392e-02       2.307971118616e+04 
       2.624162975724e-02       2.300789626693e+04 
       2.637861023988e-02       2.293569160211e+04 
       2.651576809763e-02       2.286298298022e+04 
       2.665310728397e-02       2.278999598667e+04 
       2.679063185286e-02       2.271667437913e+04 
       2.692834596166e-02       2.264284887221e+04 
       2.706625387410e-02       2.256870873441e+04 
       2.720435996350e-02       2.249423204301e+04 
       2.734266871592e-02       2.241942504922e+04 
       2.748118473354e-02       2.234427494251e+04 
       2.761991273816e-02       2.226884974362e+04 
       2.775885757480e-02       2.219306840849e+04 
       2.789802421541e-02       2.211701267336e+04 
       2.803741776281e-02       2.204067303473e+04 
       2.817704345465e-02       2.196405943375e+04 
       2.831690666766e-02       2.188716749860e+04 
       2.845701292193e-02       2.181005155333e+04 
       2.859736788547e-02       2.173266962340e+04 
       2.873797737886e-02       2.165506030649e+04 
       2.887884738014e-02       2.157722233454e+04 
       2.901998402986e-02       2.149917175954e+04 
       2.916139363635e-02       2.142087439611e+04 
       2.930308268119e-02       2.134242116528e+04 
       2.944505782490e-02       2.126380289172e+04 
       2.958732591287e-02       2.118493710213e+04 
       2.972989398156e-02       2.110588868196e+04 
       2.987276926487e-02       2.102672313135e+04 
       3.001595920088e-02       2.094738880266e+04 
       3.015947143883e-02       2.086786000457e+04 
       3.030331384637e-02       2.078825423039e+04 
       3.044749451715e-02       2.070845904416e+04 
       3.059202177876e-02       2.062854071026e+04 
       3.073690420096e-02       2.054850780931e+04 
       3.088215060433e-02       2.046836134806e+04 
       3.102777006926e-02       2.038811476743e+04 
       3.117377194537e-02       2.030774877069e+04 
       3.132016586132e-02       2.022727968211e+04 
       3.146696173515e-02       2.014674445227e+04 
       3.161416978496e-02       2.006615306777e+04 
       3.176180054025e-02       1.998542367636e+04 
       3.190986485363e-02       1.990462243290e+04 
       3.205837391323e-02       1.982379784884e+04 
       3.220733925559e-02       1.974286910554e+04 
       3.235677277921e-02       1.966189893034e+04 
       3.250668675881e-02       1.958092335219e+04 
       3.265709386020e-02       1.949987812518e+04 
       3.280800715599e-02       1.941876224396e+04 
       3.295944014198e-02       1.933757934383e+04 
       3.311140675446e-02       1.925649622592e+04 
       3.326392138838e-02       1.917524815568e+04 
       3.341699891643e-02       1.909397989081e+04 
       3.357065470917e-02       1.901277481127e+04 
       3.372490465613e-02       1.893153776096e+04 
       3.387976518818e-02       1.885031812800e+04 
       3.403525330094e-02       1.876895902744e+04 
       3.419138657959e-02       1.868767044826e+04 
       3.434818322502e-02       1.860643160577e+04 
       3.450566208137e-02       1.852510498095e+04 
       3.466384266522e-02       1.844380928326e+04 
       3.482274519638e-02       1.836253766312e+04 
       3.498239063042e-02       1.828122184256e+04 
       3.514280069324e-02       1.820000671331e+04 
       3.530399791746e-02       1.811868303350e+04 
       3.546600568120e-02       1.803745054570e+04 
       3.562884824903e-02       1.795618298578e+04 
       3.579255081550e-02       1.787498305411e+04 
       3.595713955135e-02       1.779377001041e+04 
       3.612264165257e-02       1.771256870806e+04 
       3.628908539264e-02       1.763142194493e+04 
       3.645650017804e-02       1.755021084415e+04 
       3.662491660737e-02       1.746905630117e+04 
       3.679436653443e-02       1.738792082445e+04 
       3.696488313536e-02       1.730678703928e+04 
       3.713650098047e-02       1.722570891070e+04 
       3.730925611082e-02       1.714458771301e+04 
       3.748318612024e-02       1.706352345314e+04 
       3.765833024293e-02       1.698243148570e+04 
       3.783472944751e-02       1.690139694039e+04 
       3.801242653763e-02       1.682028323501e+04 
       3.819146626009e-02       1.673926767722e+04 
       3.837189542088e-02       1.665820989447e+04 
       3.855376301002e-02       1.657718822126e+04 
       3.873712033586e-02       1.649612214712e+04 
       3.892202116981e-02       1.641503777282e+04 
       3.910852190243e-02       1.633404101143e+04 
       3.929668171201e-02       1.625290672718e+04 
       3.948656274673e-02       1.617180313226e+04 
       3.967823032191e-02       1.609059161996e+04 
       3.987175313362e-02       1.600946931026e+04 
       4.006720349056e-02       1.592825046589e+04 
       4.026465756583e-02       1.584698694944e+04 
       4.046419567091e-02       1.576566089563e+04 
       4.066590255397e-02       1.568423855465e+04 
       4.086986772531e-02       1.560285118623e+04 
       4.107618581285e-02       1.552134747873e+04 
       4.128495695096e-02       1.543973211842e+04 
       4.149628720653e-02       1.535801597617e+04 
       4.171028904645e-02       1.527617441079e+04 
       4.192708185150e-02       1.519432710692e+04 
       4.214679248216e-02       1.511222456818e+04 
       4.236955590257e-02       1.503004426844e+04 
       4.259551587013e-02       1.494768276878e+04 
       4.282482569877e-02       1.486517370585e+04 
       4.305764910559e-02       1.478243477417e+04 
       4.329416115189e-02       1.469952710907e+04 
       4.353454929113e-02       1.461647194669e+04 
       4.377901453868e-02       1.453303858246e+04 
       4.402777278032e-02       1.444954547859e+04 
       4.428105623946e-02       1.436545314807e+04 
       4.453911512620e-02       1.428119422349e+04 
       4.480221949563e-02       1.419670179990e+04 
       4.507066134710e-02       1.411173850242e+04 
       4.534475700250e-02       1.402638013823e+04 
       4.562484980794e-02       1.394069577562e+04 
       4.591131321210e-02       1.385442507367e+04 
       4.620455428428e-02       1.376773202809e+04 
       4.650501774802e-02       1.368051630592e+04 
       4.681319062088e-02       1.359265665303e+04 
       4.712960757030e-02       1.350420751372e+04 
       4.745485711783e-02       1.341503750119e+04 
       4.778958885335e-02       1.332509741700e+04 
       4.813452185612e-02       1.323436970334e+04 
       4.849045456420e-02       1.314275791717e+04 
       4.885827638980e-02       1.305025248855e+04 
       4.923898144857e-02       1.295651673895e+04 
       4.963368486011e-02       1.286176077800e+04 
       5.004364219009e-02       1.276574535178e+04 
       5.047027274840e-02       1.266820921064e+04 
       5.091518764122e-02       1.256918460435e+04 
       5.138022370889e-02       1.246843787829e+04 
       5.186748477899e-02       1.236573510521e+04 
       5.237939204132e-02       1.226091026971e+04 
       5.291874582482e-02       1.215370172857e+04 
       5.348880164053e-02       1.204371763299e+04 
       5.409336405427e-02       1.193064633463e+04 
       5.473690274597e-02       1.181397636797e+04 
       5.542469591392e-02       1.169319093429e+04 
       5.616300677788e-02       1.156758679331e+04 
       5.695929883965e-02       1.143630350828e+04 
       5.782249376900e-02       1.129822240867e+04 
       5.876327031885e-02       1.115199187352e+04 
       5.979438984306e-02       1.099578380955e+04 
       6.093100739176e-02       1.082728690122e+04 
       6.219087717241e-02       1.064340039485e+04 
